PE IR                   SPECTRUM    ASCII       PEDS        1.60        
  -1
FR220606.ASC
22/05/09
15:04:56.00
22/12/01
13:44:03.00
Administrator
Endocarpo apos jateamento da carenagem eixo de transmissao - IR/UATR 80N - Vitor
550.000000
20









FRONTIER FT-IR/NIR,CPU32 MAIN 00.09.1072 09-JANUARY-2014 12:55:01
MIR TGS
MIR
OPTKBR
100262
0.200000

4.000000
FORTE
RAZ„O
ESPECTRO
MAGNITUDE
UNIVERSAL ATR
DUPLO

COMBINADO


0


#HDR
-1
-1
#GR
CM-1
%T
0.00002384185791015625
0.0
4000.000000
-1.000000
3451
8
101.350690
95.040183
#DATA
4000.000000	100.419133 
3999.000000	100.419182 
3998.000000	100.419397 
3997.000000	100.419808 
3996.000000	100.420244 
3995.000000	100.420374 
3994.000000	100.419978 
3993.000000	100.419099 
3992.000000	100.417914 
3991.000000	100.416621 
3990.000000	100.415319 
3989.000000	100.414025 
3988.000000	100.412792 
3987.000000	100.411796 
3986.000000	100.411277 
3985.000000	100.411393 
3984.000000	100.412104 
3983.000000	100.413216 
3982.000000	100.414506 
3981.000000	100.415829 
3980.000000	100.417124 
3979.000000	100.418357 
3978.000000	100.419439 
3977.000000	100.420204 
3976.000000	100.420473 
3975.000000	100.420177 
3974.000000	100.419419 
3973.000000	100.418436 
3972.000000	100.417475 
3971.000000	100.416651 
3970.000000	100.415942 
3969.000000	100.415290 
3968.000000	100.414715 
3967.000000	100.414306 
3966.000000	100.414091 
3965.000000	100.413943 
3964.000000	100.413629 
3963.000000	100.412981 
3962.000000	100.412034 
3961.000000	100.410970 
3960.000000	100.409931 
3959.000000	100.408859 
3958.000000	100.407577 
3957.000000	100.406052 
3956.000000	100.404572 
3955.000000	100.403601 
3954.000000	100.403442 
3953.000000	100.403958 
3952.000000	100.404636 
3951.000000	100.405000 
3950.000000	100.404989 
3949.000000	100.404945 
3948.000000	100.405215 
3947.000000	100.405819 
3946.000000	100.406450 
3945.000000	100.406786 
3944.000000	100.406839 
3943.000000	100.406959 
3942.000000	100.407535 
3941.000000	100.408714 
3940.000000	100.410321 
3939.000000	100.411979 
3938.000000	100.413276 
3937.000000	100.413949 
3936.000000	100.413982 
3935.000000	100.413524 
3934.000000	100.412772 
3933.000000	100.411872 
3932.000000	100.410916 
3931.000000	100.409998 
3930.000000	100.409226 
3929.000000	100.408635 
3928.000000	100.408157 
3927.000000	100.407688 
3926.000000	100.407183 
3925.000000	100.406734 
3924.000000	100.406601 
3923.000000	100.407061 
3922.000000	100.408140 
3921.000000	100.409511 
3920.000000	100.410858 
3919.000000	100.412212 
3918.000000	100.413741 
3917.000000	100.415430 
3916.000000	100.417011 
3915.000000	100.418152 
3914.000000	100.418664 
3913.000000	100.418567 
3912.000000	100.418088 
3911.000000	100.417435 
3910.000000	100.416606 
3909.000000	100.415473 
3908.000000	100.413849 
3907.000000	100.411519 
3906.000000	100.408370 
3905.000000	100.404611 
3904.000000	100.400788 
3903.000000	100.397531 
3902.000000	100.395255 
3901.000000	100.393988 
3900.000000	100.393473 
3899.000000	100.393552 
3898.000000	100.394487 
3897.000000	100.396786 
3896.000000	100.400469 
3895.000000	100.404583 
3894.000000	100.407789 
3893.000000	100.409399 
3892.000000	100.409733 
3891.000000	100.409593 
3890.000000	100.409560 
3889.000000	100.409506 
3888.000000	100.408757 
3887.000000	100.407016 
3886.000000	100.404967 
3885.000000	100.403709 
3884.000000	100.403622 
3883.000000	100.404061 
3882.000000	100.404265 
3881.000000	100.404002 
3880.000000	100.403665 
3879.000000	100.403790 
3878.000000	100.404393 
3877.000000	100.405108 
3876.000000	100.405740 
3875.000000	100.406463 
3874.000000	100.407395 
3873.000000	100.408188 
3872.000000	100.408507 
3871.000000	100.408340 
3870.000000	100.407796 
3869.000000	100.407122 
3868.000000	100.406709 
3867.000000	100.406749 
3866.000000	100.407117 
3865.000000	100.407819 
3864.000000	100.409147 
3863.000000	100.411086 
3862.000000	100.413124 
3861.000000	100.414647 
3860.000000	100.415234 
3859.000000	100.414681 
3858.000000	100.413218 
3857.000000	100.411058 
3856.000000	100.408047 
3855.000000	100.404598 
3854.000000	100.401483 
3853.000000	100.399225 
3852.000000	100.398039 
3851.000000	100.397945 
3850.000000	100.398712 
3849.000000	100.399738 
3848.000000	100.400777 
3847.000000	100.402096 
3846.000000	100.403377 
3845.000000	100.404046 
3844.000000	100.403878 
3843.000000	100.403003 
3842.000000	100.401690 
3841.000000	100.400268 
3840.000000	100.399125 
3839.000000	100.398577 
3838.000000	100.398870 
3837.000000	100.400074 
3836.000000	100.401905 
3835.000000	100.403963 
3834.000000	100.406067 
3833.000000	100.408268 
3832.000000	100.410622 
3831.000000	100.412867 
3830.000000	100.414400 
3829.000000	100.414663 
3828.000000	100.413581 
3827.000000	100.411580 
3826.000000	100.409346 
3825.000000	100.407269 
3824.000000	100.405184 
3823.000000	100.402957 
3822.000000	100.400866 
3821.000000	100.399298 
3820.000000	100.398347 
3819.000000	100.397965 
3818.000000	100.398332 
3817.000000	100.399527 
3816.000000	100.401255 
3815.000000	100.403149 
3814.000000	100.404875 
3813.000000	100.406313 
3812.000000	100.407674 
3811.000000	100.409120 
3810.000000	100.410310 
3809.000000	100.410673 
3808.000000	100.410048 
3807.000000	100.408854 
3806.000000	100.407551 
3805.000000	100.406054 
3804.000000	100.404002 
3803.000000	100.401478 
3802.000000	100.399046 
3801.000000	100.397304 
3800.000000	100.396358 
3799.000000	100.395904 
3798.000000	100.395682 
3797.000000	100.395707 
3796.000000	100.396323 
3795.000000	100.397842 
3794.000000	100.400107 
3793.000000	100.402668 
3792.000000	100.405105 
3791.000000	100.407212 
3790.000000	100.409013 
3789.000000	100.410625 
3788.000000	100.412068 
3787.000000	100.413152 
3786.000000	100.413509 
3785.000000	100.412887 
3784.000000	100.411522 
3783.000000	100.410096 
3782.000000	100.409222 
3781.000000	100.409047 
3780.000000	100.409292 
3779.000000	100.409539 
3778.000000	100.409530 
3777.000000	100.409331 
3776.000000	100.409286 
3775.000000	100.409709 
3774.000000	100.410528 
3773.000000	100.411205 
3772.000000	100.411094 
3771.000000	100.409961 
3770.000000	100.408180 
3769.000000	100.406411 
3768.000000	100.405125 
3767.000000	100.404349 
3766.000000	100.403743 
3765.000000	100.402984 
3764.000000	100.402227 
3763.000000	100.402045 
3762.000000	100.402815 
3761.000000	100.404399 
3760.000000	100.406367 
3759.000000	100.408253 
3758.000000	100.409592 
3757.000000	100.410061 
3756.000000	100.409695 
3755.000000	100.408669 
3754.000000	100.406636 
3753.000000	100.403010 
3752.000000	100.397809 
3751.000000	100.391657 
3750.000000	100.385209 
3749.000000	100.378749 
3748.000000	100.372306 
3747.000000	100.366077 
3746.000000	100.360669 
3745.000000	100.356811 
3744.000000	100.354912 
3743.000000	100.354790 
3742.000000	100.355915 
3741.000000	100.357678 
3740.000000	100.359717 
3739.000000	100.362100 
3738.000000	100.365042 
3737.000000	100.368360 
3736.000000	100.371583 
3735.000000	100.374401 
3734.000000	100.376792 
3733.000000	100.378858 
3732.000000	100.380784 
3731.000000	100.382731 
3730.000000	100.384679 
3729.000000	100.386363 
3728.000000	100.387596 
3727.000000	100.388642 
3726.000000	100.389882 
3725.000000	100.391345 
3724.000000	100.392776 
3723.000000	100.394051 
3722.000000	100.395308 
3721.000000	100.396637 
3720.000000	100.397872 
3719.000000	100.398615 
3718.000000	100.398426 
3717.000000	100.397089 
3716.000000	100.394804 
3715.000000	100.392043 
3714.000000	100.389147 
3713.000000	100.386274 
3712.000000	100.383544 
3711.000000	100.380998 
3710.000000	100.378688 
3709.000000	100.376838 
3708.000000	100.375776 
3707.000000	100.375627 
3706.000000	100.376075 
3705.000000	100.376535 
3704.000000	100.376552 
3703.000000	100.376182 
3702.000000	100.375943 
3701.000000	100.376310 
3700.000000	100.377326 
3699.000000	100.378480 
3698.000000	100.378866 
3697.000000	100.377736 
3696.000000	100.375215 
3695.000000	100.372466 
3694.000000	100.370805 
3693.000000	100.370373 
3692.000000	100.369970 
3691.000000	100.368589 
3690.000000	100.366563 
3689.000000	100.365179 
3688.000000	100.365592 
3687.000000	100.367945 
3686.000000	100.371091 
3685.000000	100.373245 
3684.000000	100.373391 
3683.000000	100.372013 
3682.000000	100.370140 
3681.000000	100.368228 
3680.000000	100.365956 
3679.000000	100.362539 
3678.000000	100.357643 
3677.000000	100.351936 
3676.000000	100.346360 
3675.000000	100.341476 
3674.000000	100.337427 
3673.000000	100.333995 
3672.000000	100.330866 
3671.000000	100.328055 
3670.000000	100.326089 
3669.000000	100.325307 
3668.000000	100.325266 
3667.000000	100.325349 
3666.000000	100.325271 
3665.000000	100.324903 
3664.000000	100.324102 
3663.000000	100.322707 
3662.000000	100.320621 
3661.000000	100.317853 
3660.000000	100.314359 
3659.000000	100.310025 
3658.000000	100.304855 
3657.000000	100.298961 
3656.000000	100.292409 
3655.000000	100.285246 
3654.000000	100.277694 
3653.000000	100.269885 
3652.000000	100.261698 
3651.000000	100.253242 
3650.000000	100.244986 
3649.000000	100.237397 
3648.000000	100.230787 
3647.000000	100.225376 
3646.000000	100.221132 
3645.000000	100.217611 
3644.000000	100.214412 
3643.000000	100.211539 
3642.000000	100.209030 
3641.000000	100.206659 
3640.000000	100.204037 
3639.000000	100.200672 
3638.000000	100.196010 
3637.000000	100.189702 
3636.000000	100.181791 
3635.000000	100.172539 
3634.000000	100.162254 
3633.000000	100.151260 
3632.000000	100.139878 
3631.000000	100.128711 
3630.000000	100.118592 
3629.000000	100.110093 
3628.000000	100.103307 
3627.000000	100.098126 
3626.000000	100.094659 
3625.000000	100.093081 
3624.000000	100.092996 
3623.000000	100.093119 
3622.000000	100.091666 
3621.000000	100.087629 
3620.000000	100.081525 
3619.000000	100.074641 
3618.000000	100.067734 
3617.000000	100.060470 
3616.000000	100.052008 
3615.000000	100.042162 
3614.000000	100.031850 
3613.000000	100.022391 
3612.000000	100.014410 
3611.000000	100.007578 
3610.000000	100.001189 
3609.000000	99.994716  
3608.000000	99.988031  
3607.000000	99.981331  
3606.000000	99.974920  
3605.000000	99.969048  
3604.000000	99.963698  
3603.000000	99.958435  
3602.000000	99.952556  
3601.000000	99.945561  
3600.000000	99.937604  
3599.000000	99.929404  
3598.000000	99.921602  
3597.000000	99.914260  
3596.000000	99.907020  
3595.000000	99.899684  
3594.000000	99.892547  
3593.000000	99.886143  
3592.000000	99.880563  
3591.000000	99.875019  
3590.000000	99.868483  
3589.000000	99.860704  
3588.000000	99.852206  
3587.000000	99.843608  
3586.000000	99.835121  
3585.000000	99.826586  
3584.000000	99.817888  
3583.000000	99.809352  
3582.000000	99.801658  
3581.000000	99.795124  
3580.000000	99.789234  
3579.000000	99.783189  
3578.000000	99.776558  
3577.000000	99.769331  
3576.000000	99.761587  
3575.000000	99.753263  
3574.000000	99.744264  
3573.000000	99.734745  
3572.000000	99.725112  
3571.000000	99.715601  
3570.000000	99.706013  
3569.000000	99.696112  
3568.000000	99.685988  
3567.000000	99.676016  
3566.000000	99.666639  
3565.000000	99.658139  
3564.000000	99.650455  
3563.000000	99.643237  
3562.000000	99.636194  
3561.000000	99.629255  
3560.000000	99.622322  
3559.000000	99.615171  
3558.000000	99.607596  
3557.000000	99.599414  
3556.000000	99.590427  
3555.000000	99.580570  
3554.000000	99.570100  
3553.000000	99.559536  
3552.000000	99.549374  
3551.000000	99.539802  
3550.000000	99.530595  
3549.000000	99.521284  
3548.000000	99.511514  
3547.000000	99.501264  
3546.000000	99.490774  
3545.000000	99.480334  
3544.000000	99.470132  
3543.000000	99.460235  
3542.000000	99.450626  
3541.000000	99.441326  
3540.000000	99.432472  
3539.000000	99.424208  
3538.000000	99.416525  
3537.000000	99.409240  
3536.000000	99.402097  
3535.000000	99.394898  
3534.000000	99.387520  
3533.000000	99.379816  
3532.000000	99.371560  
3531.000000	99.362545  
3530.000000	99.352780  
3529.000000	99.342539  
3528.000000	99.332207  
3527.000000	99.322021  
3526.000000	99.311935  
3525.000000	99.301725  
3524.000000	99.291239  
3523.000000	99.280597  
3522.000000	99.270182  
3521.000000	99.260450  
3520.000000	99.251641  
3519.000000	99.243568  
3518.000000	99.235693  
3517.000000	99.227498  
3516.000000	99.218858  
3515.000000	99.210059  
3514.000000	99.201445  
3513.000000	99.193005  
3512.000000	99.184330  
3511.000000	99.174992  
3510.000000	99.164980  
3509.000000	99.154762  
3508.000000	99.144915  
3507.000000	99.135678  
3506.000000	99.126872  
3505.000000	99.118241  
3504.000000	99.109787  
3503.000000	99.101721  
3502.000000	99.094137  
3501.000000	99.086767  
3500.000000	99.079081  
3499.000000	99.070696  
3498.000000	99.061757  
3497.000000	99.052882  
3496.000000	99.044638  
3495.000000	99.037040  
3494.000000	99.029543  
3493.000000	99.021518  
3492.000000	99.012802  
3491.000000	99.003857  
3490.000000	98.995383  
3489.000000	98.987724  
3488.000000	98.980548  
3487.000000	98.973088  
3486.000000	98.964776  
3485.000000	98.955738  
3484.000000	98.946712  
3483.000000	98.938404  
3482.000000	98.930886  
3481.000000	98.923544  
3480.000000	98.915585  
3479.000000	98.906656  
3478.000000	98.897145  
3477.000000	98.887915  
3476.000000	98.879644  
3475.000000	98.872325  
3474.000000	98.865363  
3473.000000	98.858153  
3472.000000	98.850557  
3471.000000	98.842897  
3470.000000	98.835579  
3469.000000	98.828705  
3468.000000	98.821978  
3467.000000	98.814912  
3466.000000	98.807218  
3465.000000	98.799056  
3464.000000	98.790896  
3463.000000	98.783101  
3462.000000	98.775649  
3461.000000	98.768257  
3460.000000	98.760704  
3459.000000	98.752978  
3458.000000	98.745177  
3457.000000	98.737335  
3456.000000	98.729372  
3455.000000	98.721168  
3454.000000	98.712693  
3453.000000	98.704075  
3452.000000	98.695516  
3451.000000	98.687117  
3450.000000	98.678793  
3449.000000	98.670412  
3448.000000	98.661961  
3447.000000	98.653555  
3446.000000	98.645284  
3445.000000	98.637118  
3444.000000	98.628975  
3443.000000	98.620864  
3442.000000	98.612992  
3441.000000	98.605706  
3440.000000	98.599277  
3439.000000	98.593677  
3438.000000	98.588560  
3437.000000	98.583521  
3436.000000	98.578398  
3435.000000	98.573341  
3434.000000	98.568591  
3433.000000	98.564200  
3432.000000	98.559938  
3431.000000	98.555460  
3430.000000	98.550550  
3429.000000	98.545207  
3428.000000	98.539489  
3427.000000	98.533341  
3426.000000	98.526631  
3425.000000	98.519370  
3424.000000	98.511800  
3423.000000	98.504211  
3422.000000	98.496709  
3421.000000	98.489254  
3420.000000	98.481887  
3419.000000	98.474896  
3418.000000	98.468713  
3417.000000	98.463604  
3416.000000	98.459391  
3415.000000	98.455505  
3414.000000	98.451418  
3413.000000	98.447037  
3412.000000	98.442656  
3411.000000	98.438539  
3410.000000	98.434644  
3409.000000	98.430758  
3408.000000	98.426762  
3407.000000	98.422688  
3406.000000	98.418618  
3405.000000	98.414629  
3404.000000	98.410789  
3403.000000	98.407087  
3402.000000	98.403420  
3401.000000	98.399721  
3400.000000	98.396095  
3399.000000	98.392693  
3398.000000	98.389476  
3397.000000	98.386204  
3396.000000	98.382687  
3395.000000	98.379001  
3394.000000	98.375452  
3393.000000	98.372339  
3392.000000	98.369694  
3391.000000	98.367180  
3390.000000	98.364313  
3389.000000	98.360899  
3388.000000	98.357228  
3387.000000	98.353752  
3386.000000	98.350562  
3385.000000	98.347309  
3384.000000	98.343632  
3383.000000	98.339585  
3382.000000	98.335609  
3381.000000	98.332172  
3380.000000	98.329452  
3379.000000	98.327276  
3378.000000	98.325282  
3377.000000	98.323199  
3376.000000	98.321028  
3375.000000	98.318960  
3374.000000	98.317085  
3373.000000	98.315235  
3372.000000	98.313107  
3371.000000	98.310537  
3370.000000	98.307662  
3369.000000	98.304859  
3368.000000	98.302516  
3367.000000	98.300772  
3366.000000	98.299412  
3365.000000	98.298032  
3364.000000	98.296386  
3363.000000	98.294572  
3362.000000	98.292893  
3361.000000	98.291511  
3360.000000	98.290236  
3359.000000	98.288642  
3358.000000	98.286432  
3357.000000	98.283716  
3356.000000	98.280970  
3355.000000	98.278702  
3354.000000	98.277163  
3353.000000	98.276289  
3352.000000	98.275833  
3351.000000	98.275515  
3350.000000	98.275162  
3349.000000	98.274792  
3348.000000	98.274549  
3347.000000	98.274437  
3346.000000	98.274161  
3345.000000	98.273318  
3344.000000	98.271806  
3343.000000	98.269962  
3342.000000	98.268280  
3341.000000	98.267023  
3340.000000	98.266145  
3339.000000	98.265505  
3338.000000	98.265106  
3337.000000	98.265144  
3336.000000	98.265828  
3335.000000	98.267147  
3334.000000	98.268834  
3333.000000	98.270612  
3332.000000	98.272466  
3331.000000	98.274602  
3330.000000	98.277120  
3329.000000	98.279829  
3328.000000	98.282427  
3327.000000	98.284789  
3326.000000	98.287011  
3325.000000	98.289213  
3324.000000	98.291383  
3323.000000	98.293429  
3322.000000	98.295341  
3321.000000	98.297266  
3320.000000	98.299441  
3319.000000	98.302015  
3318.000000	98.304920  
3317.000000	98.307958  
3316.000000	98.311023  
3315.000000	98.314208  
3314.000000	98.317622  
3313.000000	98.321127  
3312.000000	98.324336  
3311.000000	98.326924  
3310.000000	98.328889  
3309.000000	98.330491  
3308.000000	98.331924  
3307.000000	98.333132  
3306.000000	98.333948  
3305.000000	98.334390  
3304.000000	98.334773  
3303.000000	98.335559  
3302.000000	98.337097  
3301.000000	98.339471  
3300.000000	98.342526  
3299.000000	98.345992  
3298.000000	98.349620  
3297.000000	98.353254  
3296.000000	98.356806  
3295.000000	98.360198  
3294.000000	98.363343  
3293.000000	98.366157  
3292.000000	98.368546  
3291.000000	98.370394  
3290.000000	98.371652  
3289.000000	98.372512  
3288.000000	98.373464  
3287.000000	98.375062  
3286.000000	98.377560  
3285.000000	98.380778  
3284.000000	98.384296  
3283.000000	98.387814  
3282.000000	98.391344  
3281.000000	98.395140  
3280.000000	98.399411  
3279.000000	98.404071  
3278.000000	98.408730  
3277.000000	98.412975  
3276.000000	98.416700  
3275.000000	98.420194  
3274.000000	98.423929  
3273.000000	98.428280  
3272.000000	98.433389  
3271.000000	98.439191  
3270.000000	98.445515  
3269.000000	98.452155  
3268.000000	98.458917  
3267.000000	98.465656  
3266.000000	98.472280  
3265.000000	98.478727  
3264.000000	98.484924  
3263.000000	98.490775  
3262.000000	98.496210  
3261.000000	98.501272  
3260.000000	98.506183  
3259.000000	98.511322  
3258.000000	98.517095  
3257.000000	98.523688  
3256.000000	98.530868  
3255.000000	98.538053  
3254.000000	98.544689  
3253.000000	98.550650  
3252.000000	98.556256  
3251.000000	98.561892  
3250.000000	98.567610  
3249.000000	98.573106  
3248.000000	98.578082  
3247.000000	98.582597  
3246.000000	98.587073  
3245.000000	98.591978  
3244.000000	98.597472  
3243.000000	98.603358  
3242.000000	98.609382  
3241.000000	98.615563  
3240.000000	98.622211  
3239.000000	98.629629  
3238.000000	98.637835  
3237.000000	98.646527  
3236.000000	98.655230  
3235.000000	98.663482  
3234.000000	98.670990  
3233.000000	98.677683  
3232.000000	98.683609  
3231.000000	98.688783  
3230.000000	98.693217  
3229.000000	98.697105  
3228.000000	98.700898  
3227.000000	98.705068  
3226.000000	98.709834  
3225.000000	98.715122  
3224.000000	98.720758  
3223.000000	98.726629  
3222.000000	98.732723  
3221.000000	98.739107  
3220.000000	98.745875  
3219.000000	98.753029  
3218.000000	98.760402  
3217.000000	98.767717  
3216.000000	98.774719  
3215.000000	98.781251  
3214.000000	98.787255  
3213.000000	98.792755  
3212.000000	98.797794  
3211.000000	98.802352  
3210.000000	98.806408  
3209.000000	98.810143  
3208.000000	98.814020  
3207.000000	98.818523  
3206.000000	98.823809  
3205.000000	98.829698  
3204.000000	98.835949  
3203.000000	98.842407  
3202.000000	98.848897  
3201.000000	98.855144  
3200.000000	98.860940  
3199.000000	98.866380  
3198.000000	98.871821  
3197.000000	98.877600  
3196.000000	98.883791  
3195.000000	98.890207  
3194.000000	98.896638  
3193.000000	98.903100  
3192.000000	98.909861  
3191.000000	98.917196  
3190.000000	98.925139  
3189.000000	98.933495  
3188.000000	98.942031  
3187.000000	98.950541  
3186.000000	98.958763  
3185.000000	98.966397  
3184.000000	98.973299  
3183.000000	98.979584  
3182.000000	98.985424  
3181.000000	98.990818  
3180.000000	98.995660  
3179.000000	99.000056  
3178.000000	99.004475  
3177.000000	99.009535  
3176.000000	99.015636  
3175.000000	99.022780  
3174.000000	99.030625  
3173.000000	99.038662  
3172.000000	99.046371  
3171.000000	99.053355  
3170.000000	99.059468  
3169.000000	99.064879  
3168.000000	99.069975  
3167.000000	99.075147  
3166.000000	99.080606  
3165.000000	99.086370  
3164.000000	99.092413  
3163.000000	99.098796  
3162.000000	99.105642  
3161.000000	99.112965  
3160.000000	99.120483  
3159.000000	99.127679  
3158.000000	99.134144  
3157.000000	99.139988  
3156.000000	99.145853  
3155.000000	99.152401  
3154.000000	99.159752  
3153.000000	99.167445  
3152.000000	99.174953  
3151.000000	99.182166  
3150.000000	99.189311  
3149.000000	99.196456  
3148.000000	99.203227  
3147.000000	99.209110  
3146.000000	99.214042  
3145.000000	99.218608  
3144.000000	99.223552  
3143.000000	99.229084  
3142.000000	99.234756  
3141.000000	99.240066  
3140.000000	99.245043  
3139.000000	99.250142  
3138.000000	99.255639  
3137.000000	99.261321  
3136.000000	99.266798  
3135.000000	99.271989  
3134.000000	99.277212  
3133.000000	99.282858  
3132.000000	99.289042  
3131.000000	99.295509  
3130.000000	99.301822  
3129.000000	99.307675  
3128.000000	99.313107  
3127.000000	99.318392  
3126.000000	99.323695  
3125.000000	99.328851  
3124.000000	99.333544  
3123.000000	99.337691  
3122.000000	99.341628  
3121.000000	99.345910  
3120.000000	99.350892  
3119.000000	99.356454  
3118.000000	99.362112  
3117.000000	99.367441  
3116.000000	99.372446  
3115.000000	99.377471  
3114.000000	99.382725  
3113.000000	99.387923  
3112.000000	99.392456  
3111.000000	99.395911  
3110.000000	99.398444  
3109.000000	99.400680  
3108.000000	99.403299  
3107.000000	99.406675  
3106.000000	99.410803  
3105.000000	99.415477  
3104.000000	99.420522  
3103.000000	99.425883  
3102.000000	99.431556  
3101.000000	99.437478  
3100.000000	99.443457  
3099.000000	99.449188  
3098.000000	99.454403  
3097.000000	99.459105  
3096.000000	99.463642  
3095.000000	99.468440  
3094.000000	99.473595  
3093.000000	99.478727  
3092.000000	99.483280  
3091.000000	99.486919  
3090.000000	99.489670  
3089.000000	99.491782  
3088.000000	99.493545  
3087.000000	99.495200  
3086.000000	99.496948  
3085.000000	99.498967  
3084.000000	99.501429  
3083.000000	99.504448  
3082.000000	99.508015  
3081.000000	99.512012  
3080.000000	99.516288  
3079.000000	99.520686  
3078.000000	99.524999  
3077.000000	99.528983  
3076.000000	99.532514  
3075.000000	99.535736  
3074.000000	99.539008  
3073.000000	99.542693  
3072.000000	99.546944  
3071.000000	99.551602  
3070.000000	99.556250  
3069.000000	99.560479  
3068.000000	99.564204  
3067.000000	99.567712  
3066.000000	99.571312  
3065.000000	99.574982  
3064.000000	99.578419  
3063.000000	99.581451  
3062.000000	99.584318  
3061.000000	99.587502  
3060.000000	99.591333  
3059.000000	99.595737  
3058.000000	99.600337  
3057.000000	99.604750  
3056.000000	99.608847  
3055.000000	99.612783  
3054.000000	99.616787  
3053.000000	99.620934  
3052.000000	99.625081  
3051.000000	99.629001  
3050.000000	99.632534  
3049.000000	99.635652  
3048.000000	99.638472  
3047.000000	99.641189  
3046.000000	99.643947  
3045.000000	99.646752  
3044.000000	99.649528  
3043.000000	99.652285  
3042.000000	99.655176  
3041.000000	99.658391  
3040.000000	99.662024  
3039.000000	99.666048  
3038.000000	99.670316  
3037.000000	99.674528  
3036.000000	99.678272  
3035.000000	99.681216  
3034.000000	99.683336  
3033.000000	99.684935  
3032.000000	99.686394  
3031.000000	99.687901  
3030.000000	99.689379  
3029.000000	99.690668  
3028.000000	99.691758  
3027.000000	99.692842  
3026.000000	99.694122  
3025.000000	99.695575  
3024.000000	99.696941  
3023.000000	99.697955  
3022.000000	99.698528  
3021.000000	99.698711  
3020.000000	99.698533  
3019.000000	99.697950  
3018.000000	99.696951  
3017.000000	99.695655  
3016.000000	99.694259  
3015.000000	99.692898  
3014.000000	99.691588  
3013.000000	99.690324  
3012.000000	99.689228  
3011.000000	99.688583  
3010.000000	99.688679  
3009.000000	99.689591  
3008.000000	99.691098  
3007.000000	99.692817  
3006.000000	99.694421  
3005.000000	99.695772  
3004.000000	99.696937  
3003.000000	99.698108  
3002.000000	99.699460  
3001.000000	99.700997  
3000.000000	99.702518  
2999.000000	99.703793  
2998.000000	99.704812  
2997.000000	99.705859  
2996.000000	99.707254  
2995.000000	99.708975  
2994.000000	99.710520  
2993.000000	99.711185  
2992.000000	99.710597  
2991.000000	99.709002  
2990.000000	99.707016  
2989.000000	99.705018  
2988.000000	99.702757  
2987.000000	99.699595  
2986.000000	99.695141  
2985.000000	99.689614  
2984.000000	99.683605  
2983.000000	99.677515  
2982.000000	99.671218  
2981.000000	99.664238  
2980.000000	99.656223  
2979.000000	99.647278  
2978.000000	99.637865  
2977.000000	99.628350  
2976.000000	99.618633  
2975.000000	99.608244  
2974.000000	99.596772  
2973.000000	99.584140  
2972.000000	99.570425  
2971.000000	99.555534  
2970.000000	99.539190  
2969.000000	99.521274  
2968.000000	99.502087  
2967.000000	99.482201  
2966.000000	99.462096  
2965.000000	99.441978  
2964.000000	99.421975  
2963.000000	99.402436  
2962.000000	99.383947  
2961.000000	99.366972  
2960.000000	99.351507  
2959.000000	99.337198  
2958.000000	99.323839  
2957.000000	99.311647  
2956.000000	99.300940  
2955.000000	99.291578  
2954.000000	99.282892  
2953.000000	99.274180  
2952.000000	99.265188  
2951.000000	99.256005  
2950.000000	99.246532  
2949.000000	99.236116  
2948.000000	99.223757  
2947.000000	99.208673  
2946.000000	99.190747  
2945.000000	99.170425  
2944.000000	99.148163  
2943.000000	99.123943  
2942.000000	99.097365  
2941.000000	99.068187  
2940.000000	99.036707  
2939.000000	99.003587  
2938.000000	98.969344  
2937.000000	98.934069  
2936.000000	98.897647  
2935.000000	98.860179  
2934.000000	98.822189  
2933.000000	98.784422  
2932.000000	98.747431  
2931.000000	98.711417  
2930.000000	98.676514  
2929.000000	98.643198  
2928.000000	98.612328  
2927.000000	98.584747  
2926.000000	98.560947  
2925.000000	98.541191  
2924.000000	98.525947  
2923.000000	98.516107  
2922.000000	98.512756  
2921.000000	98.516687  
2920.000000	98.528085  
2919.000000	98.546579  
2918.000000	98.571536  
2917.000000	98.602236  
2916.000000	98.637767  
2915.000000	98.676814  
2914.000000	98.717699  
2913.000000	98.758736  
2912.000000	98.798615  
2911.000000	98.836518  
2910.000000	98.871985  
2909.000000	98.904774  
2908.000000	98.934839  
2907.000000	98.962358  
2906.000000	98.987669  
2905.000000	99.011097  
2904.000000	99.032824  
2903.000000	99.052910  
2902.000000	99.071443  
2901.000000	99.088641  
2900.000000	99.104746  
2899.000000	99.119838  
2898.000000	99.133831  
2897.000000	99.146704  
2896.000000	99.158715  
2895.000000	99.170317  
2894.000000	99.181896  
2893.000000	99.193553  
2892.000000	99.205097  
2891.000000	99.216212  
2890.000000	99.226736  
2889.000000	99.236812  
2888.000000	99.246739  
2887.000000	99.256569  
2886.000000	99.265908  
2885.000000	99.274193  
2884.000000	99.281171  
2883.000000	99.287034  
2882.000000	99.292063  
2881.000000	99.296240  
2880.000000	99.299230  
2879.000000	99.300753  
2878.000000	99.300941  
2877.000000	99.300331  
2876.000000	99.299508  
2875.000000	99.298738  
2874.000000	99.297977  
2873.000000	99.297215  
2872.000000	99.296677  
2871.000000	99.296592  
2870.000000	99.296760  
2869.000000	99.296478  
2868.000000	99.294882  
2867.000000	99.291284  
2866.000000	99.285166  
2865.000000	99.276010  
2864.000000	99.263316  
2863.000000	99.246841  
2862.000000	99.226810  
2861.000000	99.203907  
2860.000000	99.179066  
2859.000000	99.153249  
2858.000000	99.127444  
2857.000000	99.102932  
2856.000000	99.081532  
2855.000000	99.065449  
2854.000000	99.056719  
2853.000000	99.056690  
2852.000000	99.065942  
2851.000000	99.084501  
2850.000000	99.111995  
2849.000000	99.147596  
2848.000000	99.189933  
2847.000000	99.237135  
2846.000000	99.287008  
2845.000000	99.337297  
2844.000000	99.385993  
2843.000000	99.431594  
2842.000000	99.473225  
2841.000000	99.510582  
2840.000000	99.543779  
2839.000000	99.573137  
2838.000000	99.599002  
2837.000000	99.621640  
2836.000000	99.641302  
2835.000000	99.658351  
2834.000000	99.673287  
2833.000000	99.686635  
2832.000000	99.698822  
2831.000000	99.710147  
2830.000000	99.720819  
2829.000000	99.730995  
2828.000000	99.740786  
2827.000000	99.750253  
2826.000000	99.759408  
2825.000000	99.768202  
2824.000000	99.776523  
2823.000000	99.784215  
2822.000000	99.791126  
2821.000000	99.797196  
2820.000000	99.802540  
2819.000000	99.807446  
2818.000000	99.812240  
2817.000000	99.817112  
2816.000000	99.822033  
2815.000000	99.826865  
2814.000000	99.831525  
2813.000000	99.836053  
2812.000000	99.840550  
2811.000000	99.845091  
2810.000000	99.849693  
2809.000000	99.854324  
2808.000000	99.858905  
2807.000000	99.863343  
2806.000000	99.867592  
2805.000000	99.871696  
2804.000000	99.875723  
2803.000000	99.879651  
2802.000000	99.883356  
2801.000000	99.886729  
2800.000000	99.889779  
2799.000000	99.892601  
2798.000000	99.895247  
2797.000000	99.897694  
2796.000000	99.899924  
2795.000000	99.902032  
2794.000000	99.904175  
2793.000000	99.906428  
2792.000000	99.908711  
2791.000000	99.910916  
2790.000000	99.913092  
2789.000000	99.915457  
2788.000000	99.918175  
2787.000000	99.921172  
2786.000000	99.924188  
2785.000000	99.926993  
2784.000000	99.929515  
2783.000000	99.931769  
2782.000000	99.933753  
2781.000000	99.935428  
2780.000000	99.936806  
2779.000000	99.937993  
2778.000000	99.939175  
2777.000000	99.940536  
2776.000000	99.942159  
2775.000000	99.943980  
2774.000000	99.945854  
2773.000000	99.947661  
2772.000000	99.949340  
2771.000000	99.950849  
2770.000000	99.952135  
2769.000000	99.953184  
2768.000000	99.954053  
2767.000000	99.954861  
2766.000000	99.955748  
2765.000000	99.956859  
2764.000000	99.958302  
2763.000000	99.960098  
2762.000000	99.962189  
2761.000000	99.964486  
2760.000000	99.966851  
2759.000000	99.969048  
2758.000000	99.970788  
2757.000000	99.971905  
2756.000000	99.972463  
2755.000000	99.972672  
2754.000000	99.972723  
2753.000000	99.972720  
2752.000000	99.972705  
2751.000000	99.972714  
2750.000000	99.972839  
2749.000000	99.973263  
2748.000000	99.974181  
2747.000000	99.975613  
2746.000000	99.977316  
2745.000000	99.978944  
2744.000000	99.980278  
2743.000000	99.981319  
2742.000000	99.982195  
2741.000000	99.983049  
2740.000000	99.983942  
2739.000000	99.984808  
2738.000000	99.985498  
2737.000000	99.985945  
2736.000000	99.986261  
2735.000000	99.986623  
2734.000000	99.987084  
2733.000000	99.987589  
2732.000000	99.988148  
2731.000000	99.988900  
2730.000000	99.989970  
2729.000000	99.991329  
2728.000000	99.992835  
2727.000000	99.994374  
2726.000000	99.995941  
2725.000000	99.997590  
2724.000000	99.999315  
2723.000000	100.000959 
2722.000000	100.002287 
2721.000000	100.003192 
2720.000000	100.003793 
2719.000000	100.004274 
2718.000000	100.004629 
2717.000000	100.004683 
2716.000000	100.004387 
2715.000000	100.003999 
2714.000000	100.003887 
2713.000000	100.004195 
2712.000000	100.004777 
2711.000000	100.005428 
2710.000000	100.006127 
2709.000000	100.007020 
2708.000000	100.008220 
2707.000000	100.009631 
2706.000000	100.010992 
2705.000000	100.012078 
2704.000000	100.012861 
2703.000000	100.013454 
2702.000000	100.013930 
2701.000000	100.014247 
2700.000000	100.014379 
2699.000000	100.014479 
2698.000000	100.014832 
2697.000000	100.015621 
2696.000000	100.016754 
2695.000000	100.017952 
2694.000000	100.019015 
2693.000000	100.019983 
2692.000000	100.021029 
2691.000000	100.022216 
2690.000000	100.023411 
2689.000000	100.024471 
2688.000000	100.025440 
2687.000000	100.026512 
2686.000000	100.027798 
2685.000000	100.029194 
2684.000000	100.030494 
2683.000000	100.031582 
2682.000000	100.032469 
2681.000000	100.033171 
2680.000000	100.033610 
2679.000000	100.033676 
2678.000000	100.033362 
2677.000000	100.032816 
2676.000000	100.032228 
2675.000000	100.031734 
2674.000000	100.031426 
2673.000000	100.031429 
2672.000000	100.031864 
2671.000000	100.032707 
2670.000000	100.033731 
2669.000000	100.034616 
2668.000000	100.035122 
2667.000000	100.035124 
2666.000000	100.034547 
2665.000000	100.033322 
2664.000000	100.031401 
2663.000000	100.028752 
2662.000000	100.025351 
2661.000000	100.021242 
2660.000000	100.016651 
2659.000000	100.012015 
2658.000000	100.007817 
2657.000000	100.004350 
2656.000000	100.001599 
2655.000000	99.999382  
2654.000000	99.997622  
2653.000000	99.996456  
2652.000000	99.996053  
2651.000000	99.996330  
2650.000000	99.996929  
2649.000000	99.997498  
2648.000000	99.997957  
2647.000000	99.998457  
2646.000000	99.999116  
2645.000000	99.999872  
2644.000000	100.000558 
2643.000000	100.001078 
2642.000000	100.001472 
2641.000000	100.001843 
2640.000000	100.002213 
2639.000000	100.002464 
2638.000000	100.002469 
2637.000000	100.002311 
2636.000000	100.002327 
2635.000000	100.002884 
2634.000000	100.004109 
2633.000000	100.005837 
2632.000000	100.007771 
2631.000000	100.009674 
2630.000000	100.011457 
2629.000000	100.013163 
2628.000000	100.014849 
2627.000000	100.016438 
2626.000000	100.017705 
2625.000000	100.018461 
2624.000000	100.018745 
2623.000000	100.018838 
2622.000000	100.019106 
2621.000000	100.019827 
2620.000000	100.021065 
2619.000000	100.022611 
2618.000000	100.024087 
2617.000000	100.025218 
2616.000000	100.026071 
2615.000000	100.026986 
2614.000000	100.028284 
2613.000000	100.030009 
2612.000000	100.031929 
2611.000000	100.033765 
2610.000000	100.035471 
2609.000000	100.037322 
2608.000000	100.039641 
2607.000000	100.042402 
2606.000000	100.045170 
2605.000000	100.047518 
2604.000000	100.049454 
2603.000000	100.051352 
2602.000000	100.053523 
2601.000000	100.055920 
2600.000000	100.058225 
2599.000000	100.060137 
2598.000000	100.061614 
2597.000000	100.062924 
2596.000000	100.064451 
2595.000000	100.066338 
2594.000000	100.068343 
2593.000000	100.070070 
2592.000000	100.071359 
2591.000000	100.072369 
2590.000000	100.073338 
2589.000000	100.074333 
2588.000000	100.075190 
2587.000000	100.075640 
2586.000000	100.075516 
2585.000000	100.074950 
2584.000000	100.074346 
2583.000000	100.074105 
2582.000000	100.074366 
2581.000000	100.075037 
2580.000000	100.075999 
2579.000000	100.077213 
2578.000000	100.078707 
2577.000000	100.080576 
2576.000000	100.082885 
2575.000000	100.085429 
2574.000000	100.087636 
2573.000000	100.088958 
2572.000000	100.089420 
2571.000000	100.089680 
2570.000000	100.090459 
2569.000000	100.091940 
2568.000000	100.093713 
2567.000000	100.095230 
2566.000000	100.096329 
2565.000000	100.097369 
2564.000000	100.098862 
2563.000000	100.100929 
2562.000000	100.103148 
2561.000000	100.104979 
2560.000000	100.106257 
2559.000000	100.107174 
2558.000000	100.107919 
2557.000000	100.108507 
2556.000000	100.108941 
2555.000000	100.109322 
2554.000000	100.109725 
2553.000000	100.110103 
2552.000000	100.110401 
2551.000000	100.110716 
2550.000000	100.111299 
2549.000000	100.112418 
2548.000000	100.114157 
2547.000000	100.116279 
2546.000000	100.118331 
2545.000000	100.120004 
2544.000000	100.121378 
2543.000000	100.122745 
2542.000000	100.124216 
2541.000000	100.125620 
2540.000000	100.126752 
2539.000000	100.127603 
2538.000000	100.128369 
2537.000000	100.129372 
2536.000000	100.130929 
2535.000000	100.133120 
2534.000000	100.135614 
2533.000000	100.137864 
2532.000000	100.139551 
2531.000000	100.140785 
2530.000000	100.141845 
2529.000000	100.142838 
2528.000000	100.143622 
2527.000000	100.143984 
2526.000000	100.143863 
2525.000000	100.143445 
2524.000000	100.143076 
2523.000000	100.143010 
2522.000000	100.143268 
2521.000000	100.143749 
2520.000000	100.144408 
2519.000000	100.145197 
2518.000000	100.145958 
2517.000000	100.146579 
2516.000000	100.147247 
2515.000000	100.148364 
2514.000000	100.150092 
2513.000000	100.152113 
2512.000000	100.153885 
2511.000000	100.155091 
2510.000000	100.155850 
2509.000000	100.156614 
2508.000000	100.157846 
2507.000000	100.159644 
2506.000000	100.161577 
2505.000000	100.162994 
2504.000000	100.163597 
2503.000000	100.163715 
2502.000000	100.163990 
2501.000000	100.164803 
2500.000000	100.165952 
2499.000000	100.166828 
2498.000000	100.166956 
2497.000000	100.166483 
2496.000000	100.166157 
2495.000000	100.166711 
2494.000000	100.168245 
2493.000000	100.170255 
2492.000000	100.172216 
2491.000000	100.173988 
2490.000000	100.175690 
2489.000000	100.177377 
2488.000000	100.178919 
2487.000000	100.180105 
2486.000000	100.180798 
2485.000000	100.181057 
2484.000000	100.181188 
2483.000000	100.181588 
2482.000000	100.182504 
2481.000000	100.183887 
2480.000000	100.185450 
2479.000000	100.186800 
2478.000000	100.187622 
2477.000000	100.187861 
2476.000000	100.187707 
2475.000000	100.187322 
2474.000000	100.186620 
2473.000000	100.185468 
2472.000000	100.184032 
2471.000000	100.182738 
2470.000000	100.181896 
2469.000000	100.181517 
2468.000000	100.181516 
2467.000000	100.181874 
2466.000000	100.182506 
2465.000000	100.183121 
2464.000000	100.183349 
2463.000000	100.182995 
2462.000000	100.182156 
2461.000000	100.181168 
2460.000000	100.180405 
2459.000000	100.179988 
2458.000000	100.179688 
2457.000000	100.179255 
2456.000000	100.178863 
2455.000000	100.179049 
2454.000000	100.180129 
2453.000000	100.181813 
2452.000000	100.183515 
2451.000000	100.184941 
2450.000000	100.186278 
2449.000000	100.187892 
2448.000000	100.189903 
2447.000000	100.191986 
2446.000000	100.193578 
2445.000000	100.194386 
2444.000000	100.194779 
2443.000000	100.195539 
2442.000000	100.197124 
2441.000000	100.199248 
2440.000000	100.201279 
2439.000000	100.202961 
2438.000000	100.204630 
2437.000000	100.206776 
2436.000000	100.209517 
2435.000000	100.212448 
2434.000000	100.214927 
2433.000000	100.216525 
2432.000000	100.217321 
2431.000000	100.217805 
2430.000000	100.218477 
2429.000000	100.219542 
2428.000000	100.220923 
2427.000000	100.222457 
2426.000000	100.223995 
2425.000000	100.225422 
2424.000000	100.226739 
2423.000000	100.228105 
2422.000000	100.229707 
2421.000000	100.231509 
2420.000000	100.233200 
2419.000000	100.234494 
2418.000000	100.235507 
2417.000000	100.236773 
2416.000000	100.238786 
2415.000000	100.241513 
2414.000000	100.244412 
2413.000000	100.247007 
2412.000000	100.249384 
2411.000000	100.252035 
2410.000000	100.255247 
2409.000000	100.258743 
2408.000000	100.261929 
2407.000000	100.264436 
2406.000000	100.266391 
2405.000000	100.268197 
2404.000000	100.270064 
2403.000000	100.271737 
2402.000000	100.272696 
2401.000000	100.272643 
2400.000000	100.271790 
2399.000000	100.270672 
2398.000000	100.269752 
2397.000000	100.269177 
2396.000000	100.268830 
2395.000000	100.268534 
2394.000000	100.268260 
2393.000000	100.268192 
2392.000000	100.268463 
2391.000000	100.268731 
2390.000000	100.268129 
2389.000000	100.265882 
2388.000000	100.262074 
2387.000000	100.257841 
2386.000000	100.254879 
2385.000000	100.254792 
2384.000000	100.258699 
2383.000000	100.267121 
2382.000000	100.279983 
2381.000000	100.296719 
2380.000000	100.316290 
2379.000000	100.336981 
2378.000000	100.356253 
2377.000000	100.371262 
2376.000000	100.380043 
2375.000000	100.382456 
2374.000000	100.380049 
2373.000000	100.374995 
2372.000000	100.368920 
2371.000000	100.362405 
2370.000000	100.355526 
2369.000000	100.348903 
2368.000000	100.343795 
2367.000000	100.340696 
2366.000000	100.338228 
2365.000000	100.334280 
2364.000000	100.328051 
2363.000000	100.320337 
2362.000000	100.312424 
2361.000000	100.305459 
2360.000000	100.300464 
2359.000000	100.298160 
2358.000000	100.299331 
2357.000000	100.304811 
2356.000000	100.313890 
2355.000000	100.323400 
2354.000000	100.329990 
2353.000000	100.333045 
2352.000000	100.334488 
2351.000000	100.336077 
2350.000000	100.337375 
2349.000000	100.335830 
2348.000000	100.329330 
2347.000000	100.318707 
2346.000000	100.307798 
2345.000000	100.300563 
2344.000000	100.297948 
2343.000000	100.297688 
2342.000000	100.296879 
2341.000000	100.294839 
2340.000000	100.293330 
2339.000000	100.294153 
2338.000000	100.297484 
2337.000000	100.302134 
2336.000000	100.306435 
2335.000000	100.309109 
2334.000000	100.309209 
2333.000000	100.305911 
2332.000000	100.298282 
2331.000000	100.285815 
2330.000000	100.268703 
2329.000000	100.247713 
2328.000000	100.223907 
2327.000000	100.199045 
2326.000000	100.175496 
2325.000000	100.155641 
2324.000000	100.140855 
2323.000000	100.131569 
2322.000000	100.127555 
2321.000000	100.128397 
2320.000000	100.133373 
2319.000000	100.141224 
2318.000000	100.149896 
2317.000000	100.157258 
2316.000000	100.162127 
2315.000000	100.164794 
2314.000000	100.166162 
2313.000000	100.166931 
2312.000000	100.167307 
2311.000000	100.167396 
2310.000000	100.167227 
2309.000000	100.166741 
2308.000000	100.165703 
2307.000000	100.163983 
2306.000000	100.161642 
2305.000000	100.158989 
2304.000000	100.156323 
2303.000000	100.153687 
2302.000000	100.150673 
2301.000000	100.146893 
2300.000000	100.142568 
2299.000000	100.138636 
2298.000000	100.135932 
2297.000000	100.134449 
2296.000000	100.133339 
2295.000000	100.131722 
2294.000000	100.129277 
2293.000000	100.126249 
2292.000000	100.122911 
2291.000000	100.119196 
2290.000000	100.114865 
2289.000000	100.110096 
2288.000000	100.105779 
2287.000000	100.103062 
2286.000000	100.102590 
2285.000000	100.104263 
2284.000000	100.107719 
2283.000000	100.112806 
2282.000000	100.119513 
2281.000000	100.127618 
2280.000000	100.136549 
2279.000000	100.145477 
2278.000000	100.153527 
2277.000000	100.160078 
2276.000000	100.165047 
2275.000000	100.168834 
2274.000000	100.171923 
2273.000000	100.174546 
2272.000000	100.176657 
2271.000000	100.178164 
2270.000000	100.179235 
2269.000000	100.180532 
2268.000000	100.182942 
2267.000000	100.186796 
2266.000000	100.191343 
2265.000000	100.195304 
2264.000000	100.197978 
2263.000000	100.199593 
2262.000000	100.200602 
2261.000000	100.201022 
2260.000000	100.200621 
2259.000000	100.199492 
2258.000000	100.198216 
2257.000000	100.197570 
2256.000000	100.198131 
2255.000000	100.199994 
2254.000000	100.202791 
2253.000000	100.206118 
2252.000000	100.209909 
2251.000000	100.214160 
2250.000000	100.218353 
2249.000000	100.221560 
2248.000000	100.223257 
2247.000000	100.223757 
2246.000000	100.223684 
2245.000000	100.223309 
2244.000000	100.222533 
2243.000000	100.221242 
2242.000000	100.219433 
2241.000000	100.217167 
2240.000000	100.214569 
2239.000000	100.211771 
2238.000000	100.208863 
2237.000000	100.206113 
2236.000000	100.204223 
2235.000000	100.203937 
2234.000000	100.205166 
2233.000000	100.206808 
2232.000000	100.207723 
2231.000000	100.207714 
2230.000000	100.207350 
2229.000000	100.207071 
2228.000000	100.206758 
2227.000000	100.206069 
2226.000000	100.204923 
2225.000000	100.203660 
2224.000000	100.202832 
2223.000000	100.202810 
2222.000000	100.203517 
2221.000000	100.204606 
2220.000000	100.205858 
2219.000000	100.207214 
2218.000000	100.208473 
2217.000000	100.209302 
2216.000000	100.209629 
2215.000000	100.209763 
2214.000000	100.209930 
2213.000000	100.209965 
2212.000000	100.209649 
2211.000000	100.209154 
2210.000000	100.208931 
2209.000000	100.209214 
2208.000000	100.209721 
2207.000000	100.209733 
2206.000000	100.208528 
2205.000000	100.206033 
2204.000000	100.203167 
2203.000000	100.201216 
2202.000000	100.200643 
2201.000000	100.200648 
2200.000000	100.200048 
2199.000000	100.198457 
2198.000000	100.196498 
2197.000000	100.194988 
2196.000000	100.194038 
2195.000000	100.192815 
2194.000000	100.190199 
2193.000000	100.185872 
2192.000000	100.180827 
2191.000000	100.176570 
2190.000000	100.173799 
2189.000000	100.172176 
2188.000000	100.171485 
2187.000000	100.172627 
2186.000000	100.176991 
2185.000000	100.184784 
2184.000000	100.194224 
2183.000000	100.202568 
2182.000000	100.208093 
2181.000000	100.211305 
2180.000000	100.214232 
2179.000000	100.218281 
2178.000000	100.222656 
2177.000000	100.225011 
2176.000000	100.223681 
2175.000000	100.219134 
2174.000000	100.213224 
2173.000000	100.207187 
2172.000000	100.200354 
2171.000000	100.190691 
2170.000000	100.176756 
2169.000000	100.159188 
2168.000000	100.140132 
2167.000000	100.121335 
2166.000000	100.103654 
2165.000000	100.089179 
2164.000000	100.083246 
2163.000000	100.092645 
2162.000000	100.120570 
2161.000000	100.163696 
2160.000000	100.214634 
2159.000000	100.266707 
2158.000000	100.316399 
2157.000000	100.362386 
2156.000000	100.402646 
2155.000000	100.432539 
2154.000000	100.446683 
2153.000000	100.443685 
2152.000000	100.428400 
2151.000000	100.408741 
2150.000000	100.390908 
2149.000000	100.377831 
2148.000000	100.370250 
2147.000000	100.367632 
2146.000000	100.368379 
2145.000000	100.370390 
2144.000000	100.372078 
2143.000000	100.372782 
2142.000000	100.372569 
2141.000000	100.372167 
2140.000000	100.372960 
2139.000000	100.376292 
2138.000000	100.382464 
2137.000000	100.390575 
2136.000000	100.399271 
2135.000000	100.407384 
2134.000000	100.414000 
2133.000000	100.418316 
2132.000000	100.419392 
2131.000000	100.415988 
2130.000000	100.407101 
2129.000000	100.393165 
2128.000000	100.376438 
2127.000000	100.359617 
2126.000000	100.344122 
2125.000000	100.330020 
2124.000000	100.317183 
2123.000000	100.305871 
2122.000000	100.296256 
2121.000000	100.288022 
2120.000000	100.280653 
2119.000000	100.273790 
2118.000000	100.267228 
2117.000000	100.260846 
2116.000000	100.254675 
2115.000000	100.248812 
2114.000000	100.243272 
2113.000000	100.238132 
2112.000000	100.233745 
2111.000000	100.230506 
2110.000000	100.228404 
2109.000000	100.227084 
2108.000000	100.226279 
2107.000000	100.225879 
2106.000000	100.225729 
2105.000000	100.225808 
2104.000000	100.226553 
2103.000000	100.228487 
2102.000000	100.231494 
2101.000000	100.234931 
2100.000000	100.238509 
2099.000000	100.242565 
2098.000000	100.247289 
2097.000000	100.252184 
2096.000000	100.256483 
2095.000000	100.259724 
2094.000000	100.261744 
2093.000000	100.262492 
2092.000000	100.262044 
2091.000000	100.260564 
2090.000000	100.258103 
2089.000000	100.254666 
2088.000000	100.250401 
2087.000000	100.245456 
2086.000000	100.239788 
2085.000000	100.233576 
2084.000000	100.227757 
2083.000000	100.223595 
2082.000000	100.221511 
2081.000000	100.220695 
2080.000000	100.220016 
2079.000000	100.219002 
2078.000000	100.217939 
2077.000000	100.217421 
2076.000000	100.217853 
2075.000000	100.218950 
2074.000000	100.219681 
2073.000000	100.219199 
2072.000000	100.217959 
2071.000000	100.217427 
2070.000000	100.218573 
2069.000000	100.221099 
2068.000000	100.224111 
2067.000000	100.226859 
2066.000000	100.228696 
2065.000000	100.229128 
2064.000000	100.228333 
2063.000000	100.227062 
2062.000000	100.225755 
2061.000000	100.224306 
2060.000000	100.222788 
2059.000000	100.221535 
2058.000000	100.220053 
2057.000000	100.216672 
2056.000000	100.210059 
2055.000000	100.200859 
2054.000000	100.191462 
2053.000000	100.184306 
2052.000000	100.180376 
2051.000000	100.179004 
2050.000000	100.178849 
2049.000000	100.179345 
2048.000000	100.181548 
2047.000000	100.187128 
2046.000000	100.196112 
2045.000000	100.206051 
2044.000000	100.213944 
2043.000000	100.218630 
2042.000000	100.220787 
2041.000000	100.221495 
2040.000000	100.221935 
2039.000000	100.223660 
2038.000000	100.227604 
2037.000000	100.232878 
2036.000000	100.237672 
2035.000000	100.241432 
2034.000000	100.245398 
2033.000000	100.251107 
2032.000000	100.258980 
2031.000000	100.268145 
2030.000000	100.277003 
2029.000000	100.284202 
2028.000000	100.289670 
2027.000000	100.294445 
2026.000000	100.299127 
2025.000000	100.302948 
2024.000000	100.304818 
2023.000000	100.304806 
2022.000000	100.304049 
2021.000000	100.303683 
2020.000000	100.304345 
2019.000000	100.306163 
2018.000000	100.308521 
2017.000000	100.310211 
2016.000000	100.310551 
2015.000000	100.310173 
2014.000000	100.310313 
2013.000000	100.311653 
2012.000000	100.314289 
2011.000000	100.318377 
2010.000000	100.324153 
2009.000000	100.331516 
2008.000000	100.339967 
2007.000000	100.348625 
2006.000000	100.356009 
2005.000000	100.360318 
2004.000000	100.360418 
2003.000000	100.356269 
2002.000000	100.348300 
2001.000000	100.336974 
2000.000000	100.323241 
1999.000000	100.308789 
1998.000000	100.295321 
1997.000000	100.283779 
1996.000000	100.274355 
1995.000000	100.266895 
1994.000000	100.261068 
1993.000000	100.256454 
1992.000000	100.252752 
1991.000000	100.249688 
1990.000000	100.246672 
1989.000000	100.243017 
1988.000000	100.238638 
1987.000000	100.233898 
1986.000000	100.228434 
1985.000000	100.221003 
1984.000000	100.211395 
1983.000000	100.202164 
1982.000000	100.197543 
1981.000000	100.200352 
1980.000000	100.210370 
1979.000000	100.225669 
1978.000000	100.244677 
1977.000000	100.266835 
1976.000000	100.291937 
1975.000000	100.318920 
1974.000000	100.345062 
1973.000000	100.366709 
1972.000000	100.381423 
1971.000000	100.389244 
1970.000000	100.391673 
1969.000000	100.390258 
1968.000000	100.386684 
1967.000000	100.383289 
1966.000000	100.382369 
1965.000000	100.384867 
1964.000000	100.390100 
1963.000000	100.396692 
1962.000000	100.403461 
1961.000000	100.409650 
1960.000000	100.414768 
1959.000000	100.418272 
1958.000000	100.419255 
1957.000000	100.416726 
1956.000000	100.410530 
1955.000000	100.401860 
1954.000000	100.392516 
1953.000000	100.383745 
1952.000000	100.375953 
1951.000000	100.369308 
1950.000000	100.364308 
1949.000000	100.361725 
1948.000000	100.362017 
1947.000000	100.364678 
1946.000000	100.368216 
1945.000000	100.371261 
1944.000000	100.373759 
1943.000000	100.376686 
1942.000000	100.380655 
1941.000000	100.385052 
1940.000000	100.388497 
1939.000000	100.389888 
1938.000000	100.389052 
1937.000000	100.386787 
1936.000000	100.384301 
1935.000000	100.382416 
1934.000000	100.381182 
1933.000000	100.380290 
1932.000000	100.379831 
1931.000000	100.380373 
1930.000000	100.382240 
1929.000000	100.385043 
1928.000000	100.388104 
1927.000000	100.390981 
1926.000000	100.393332 
1925.000000	100.394659 
1924.000000	100.394541 
1923.000000	100.392942 
1922.000000	100.390193 
1921.000000	100.386699 
1920.000000	100.382877 
1919.000000	100.379121 
1918.000000	100.375644 
1917.000000	100.372569 
1916.000000	100.370150 
1915.000000	100.368608 
1914.000000	100.367708 
1913.000000	100.366915 
1912.000000	100.366145 
1911.000000	100.365902 
1910.000000	100.366577 
1909.000000	100.367956 
1908.000000	100.369602 
1907.000000	100.371386 
1906.000000	100.373386 
1905.000000	100.375604 
1904.000000	100.377882 
1903.000000	100.379856 
1902.000000	100.381053 
1901.000000	100.381255 
1900.000000	100.380924 
1899.000000	100.380885 
1898.000000	100.381447 
1897.000000	100.382221 
1896.000000	100.382830 
1895.000000	100.383412 
1894.000000	100.384391 
1893.000000	100.385975 
1892.000000	100.388076 
1891.000000	100.390317 
1890.000000	100.392009 
1889.000000	100.392569 
1888.000000	100.392059 
1887.000000	100.390988 
1886.000000	100.389588 
1885.000000	100.387623 
1884.000000	100.384977 
1883.000000	100.381927 
1882.000000	100.378857 
1881.000000	100.376119 
1880.000000	100.374185 
1879.000000	100.373580 
1878.000000	100.374448 
1877.000000	100.376433 
1876.000000	100.379107 
1875.000000	100.382277 
1874.000000	100.385852 
1873.000000	100.389564 
1872.000000	100.393079 
1871.000000	100.396148 
1870.000000	100.398367 
1869.000000	100.399281 
1868.000000	100.398979 
1867.000000	100.398148 
1866.000000	100.397370 
1865.000000	100.396629 
1864.000000	100.395655 
1863.000000	100.394360 
1862.000000	100.392779 
1861.000000	100.391158 
1860.000000	100.390050 
1859.000000	100.389908 
1858.000000	100.390527 
1857.000000	100.391191 
1856.000000	100.391503 
1855.000000	100.391696 
1854.000000	100.392218 
1853.000000	100.393310 
1852.000000	100.394943 
1851.000000	100.396805 
1850.000000	100.398372 
1849.000000	100.399328 
1848.000000	100.400008 
1847.000000	100.400994 
1846.000000	100.402225 
1845.000000	100.403068 
1844.000000	100.403261 
1843.000000	100.403240 
1842.000000	100.403545 
1841.000000	100.404204 
1840.000000	100.404952 
1839.000000	100.405586 
1838.000000	100.405890 
1837.000000	100.405744 
1836.000000	100.405242 
1835.000000	100.404598 
1834.000000	100.404015 
1833.000000	100.403425 
1832.000000	100.402693 
1831.000000	100.401891 
1830.000000	100.401187 
1829.000000	100.400722 
1828.000000	100.400629 
1827.000000	100.401000 
1826.000000	100.401598 
1825.000000	100.401891 
1824.000000	100.401922 
1823.000000	100.402668 
1822.000000	100.405003 
1821.000000	100.408592 
1820.000000	100.412276 
1819.000000	100.415304 
1818.000000	100.417624 
1817.000000	100.419403 
1816.000000	100.420707 
1815.000000	100.421521 
1814.000000	100.421598 
1813.000000	100.420438 
1812.000000	100.418049 
1811.000000	100.415345 
1810.000000	100.413352 
1809.000000	100.412458 
1808.000000	100.412596 
1807.000000	100.413726 
1806.000000	100.415556 
1805.000000	100.417287 
1804.000000	100.418250 
1803.000000	100.418661 
1802.000000	100.419163 
1801.000000	100.419971 
1800.000000	100.420830 
1799.000000	100.421365 
1798.000000	100.421210 
1797.000000	100.420220 
1796.000000	100.418824 
1795.000000	100.417955 
1794.000000	100.417937 
1793.000000	100.418089 
1792.000000	100.417772 
1791.000000	100.417198 
1790.000000	100.417032 
1789.000000	100.417550 
1788.000000	100.418444 
1787.000000	100.419291 
1786.000000	100.419729 
1785.000000	100.419676 
1784.000000	100.419389 
1783.000000	100.419183 
1782.000000	100.418947 
1781.000000	100.418119 
1780.000000	100.416298 
1779.000000	100.413616 
1778.000000	100.410547 
1777.000000	100.407486 
1776.000000	100.404250 
1775.000000	100.400243 
1774.000000	100.395006 
1773.000000	100.388373 
1772.000000	100.380491 
1771.000000	100.371671 
1770.000000	100.362017 
1769.000000	100.351162 
1768.000000	100.338550 
1767.000000	100.324185 
1766.000000	100.308675 
1765.000000	100.292482 
1764.000000	100.275659 
1763.000000	100.258119 
1762.000000	100.239704 
1761.000000	100.220318 
1760.000000	100.200111 
1759.000000	100.179412 
1758.000000	100.158362 
1757.000000	100.136700 
1756.000000	100.113934 
1755.000000	100.089669 
1754.000000	100.063733 
1753.000000	100.036102 
1752.000000	100.006947 
1751.000000	99.976684  
1750.000000	99.945696  
1749.000000	99.914061  
1748.000000	99.881678  
1747.000000	99.848832  
1746.000000	99.816379  
1745.000000	99.785138  
1744.000000	99.755559  
1743.000000	99.727820  
1742.000000	99.701846  
1741.000000	99.677363  
1740.000000	99.654236  
1739.000000	99.632685  
1738.000000	99.612844  
1737.000000	99.594530  
1736.000000	99.577255  
1735.000000	99.560391  
1734.000000	99.543404  
1733.000000	99.525980  
1732.000000	99.508213  
1731.000000	99.490438  
1730.000000	99.472932  
1729.000000	99.455824  
1728.000000	99.438936  
1727.000000	99.422211  
1726.000000	99.406007  
1725.000000	99.390697  
1724.000000	99.376320  
1723.000000	99.362387  
1722.000000	99.347971  
1721.000000	99.331975  
1720.000000	99.313924  
1719.000000	99.294149  
1718.000000	99.273268  
1717.000000	99.252080  
1716.000000	99.231559  
1715.000000	99.212654  
1714.000000	99.196298  
1713.000000	99.183700  
1712.000000	99.176421  
1711.000000	99.175742  
1710.000000	99.182374  
1709.000000	99.196044  
1708.000000	99.215271  
1707.000000	99.238244  
1706.000000	99.263815  
1705.000000	99.291836  
1704.000000	99.322256  
1703.000000	99.353915  
1702.000000	99.384641  
1701.000000	99.412303  
1700.000000	99.436325  
1699.000000	99.457988  
1698.000000	99.478353  
1697.000000	99.496997  
1696.000000	99.512936  
1695.000000	99.525881  
1694.000000	99.536716  
1693.000000	99.546605  
1692.000000	99.556177  
1691.000000	99.565293  
1690.000000	99.573206  
1689.000000	99.579613  
1688.000000	99.585052  
1687.000000	99.589996  
1686.000000	99.594087  
1685.000000	99.596411  
1684.000000	99.596735  
1683.000000	99.595561  
1682.000000	99.593355  
1681.000000	99.590065  
1680.000000	99.585441  
1679.000000	99.579590  
1678.000000	99.572780  
1677.000000	99.565163  
1676.000000	99.556853  
1675.000000	99.547797  
1674.000000	99.537641  
1673.000000	99.526087  
1672.000000	99.513454  
1671.000000	99.500282  
1670.000000	99.486637  
1669.000000	99.472043  
1668.000000	99.456166  
1667.000000	99.439404  
1666.000000	99.422500  
1665.000000	99.406183  
1664.000000	99.390755  
1663.000000	99.375952  
1662.000000	99.361533  
1661.000000	99.347687  
1660.000000	99.334943  
1659.000000	99.323730  
1658.000000	99.313564  
1657.000000	99.303083  
1656.000000	99.292816  
1655.000000	99.283811  
1654.000000	99.275777  
1653.000000	99.268328  
1652.000000	99.261135  
1651.000000	99.253920  
1650.000000	99.246953  
1649.000000	99.241213  
1648.000000	99.237698  
1647.000000	99.235430  
1646.000000	99.233389  
1645.000000	99.231999  
1644.000000	99.231549  
1643.000000	99.232123  
1642.000000	99.233676  
1641.000000	99.235406  
1640.000000	99.236092  
1639.000000	99.235702  
1638.000000	99.235205  
1637.000000	99.234766  
1636.000000	99.234017  
1635.000000	99.232802  
1634.000000	99.231036  
1633.000000	99.228613  
1632.000000	99.225879  
1631.000000	99.223686  
1630.000000	99.222242  
1629.000000	99.220685  
1628.000000	99.218683  
1627.000000	99.216561  
1626.000000	99.214633  
1625.000000	99.213093  
1624.000000	99.212054  
1623.000000	99.211446  
1622.000000	99.210645  
1621.000000	99.208416  
1620.000000	99.203916  
1619.000000	99.197301  
1618.000000	99.188734  
1617.000000	99.177838  
1616.000000	99.164035  
1615.000000	99.147041  
1614.000000	99.127038  
1613.000000	99.104839  
1612.000000	99.082013  
1611.000000	99.060069  
1610.000000	99.039669  
1609.000000	99.021253  
1608.000000	99.005494  
1607.000000	98.993143  
1606.000000	98.984629  
1605.000000	98.979723  
1604.000000	98.977653  
1603.000000	98.977514  
1602.000000	98.978514  
1601.000000	98.979963  
1600.000000	98.981230  
1599.000000	98.981933  
1598.000000	98.982056  
1597.000000	98.981952  
1596.000000	98.982347  
1595.000000	98.984231  
1594.000000	98.988562  
1593.000000	98.996075  
1592.000000	99.007415  
1591.000000	99.023243  
1590.000000	99.043947  
1589.000000	99.069423  
1588.000000	99.099346  
1587.000000	99.133441  
1586.000000	99.171419  
1585.000000	99.212677  
1584.000000	99.256226  
1583.000000	99.300936  
1582.000000	99.346042  
1581.000000	99.391558  
1580.000000	99.437891  
1579.000000	99.484521  
1578.000000	99.529793  
1577.000000	99.572211  
1576.000000	99.611326  
1575.000000	99.647666  
1574.000000	99.682108  
1573.000000	99.715050  
1572.000000	99.745995  
1571.000000	99.773848  
1570.000000	99.798346  
1569.000000	99.820480  
1568.000000	99.841269  
1567.000000	99.860830  
1566.000000	99.878456  
1565.000000	99.893217  
1564.000000	99.905131  
1563.000000	99.915401  
1562.000000	99.924943  
1561.000000	99.934270  
1560.000000	99.942841  
1559.000000	99.950145  
1558.000000	99.956485  
1557.000000	99.962856  
1556.000000	99.970223  
1555.000000	99.978553  
1554.000000	99.986723  
1553.000000	99.994076  
1552.000000	100.000511 
1551.000000	100.006942 
1550.000000	100.014163 
1549.000000	100.022124 
1548.000000	100.030009 
1547.000000	100.037153 
1546.000000	100.043591 
1545.000000	100.049593 
1544.000000	100.055240 
1543.000000	100.060731 
1542.000000	100.066352 
1541.000000	100.071699 
1540.000000	100.076502 
1539.000000	100.081082 
1538.000000	100.085731 
1537.000000	100.090251 
1536.000000	100.094581 
1535.000000	100.099123 
1534.000000	100.103763 
1533.000000	100.107828 
1532.000000	100.111175 
1531.000000	100.113685 
1530.000000	100.114984 
1529.000000	100.114955 
1528.000000	100.113798 
1527.000000	100.111162 
1526.000000	100.105266 
1525.000000	100.093927 
1524.000000	100.077192 
1523.000000	100.056589 
1522.000000	100.033038 
1521.000000	100.006891 
1520.000000	99.978911  
1519.000000	99.950500  
1518.000000	99.922973  
1517.000000	99.898051  
1516.000000	99.877719  
1515.000000	99.862205  
1514.000000	99.850640  
1513.000000	99.842842  
1512.000000	99.838928  
1511.000000	99.838012  
1510.000000	99.839122  
1509.000000	99.842661  
1508.000000	99.848854  
1507.000000	99.857896  
1506.000000	99.870130  
1505.000000	99.885796  
1504.000000	99.905089  
1503.000000	99.928454  
1502.000000	99.956618  
1501.000000	99.989025  
1500.000000	100.023546 
1499.000000	100.059059 
1498.000000	100.095023 
1497.000000	100.130670 
1496.000000	100.165416 
1495.000000	100.199157 
1494.000000	100.231603 
1493.000000	100.261464 
1492.000000	100.287570 
1491.000000	100.310129 
1490.000000	100.329711 
1489.000000	100.346481 
1488.000000	100.360549 
1487.000000	100.371921 
1486.000000	100.380188 
1485.000000	100.384815 
1484.000000	100.386127 
1483.000000	100.384836 
1482.000000	100.380650 
1481.000000	100.372416 
1480.000000	100.359243 
1479.000000	100.340866 
1478.000000	100.316585 
1477.000000	100.284506 
1476.000000	100.243436 
1475.000000	100.194626 
1474.000000	100.139866 
1473.000000	100.080282 
1472.000000	100.017254 
1471.000000	99.952536  
1470.000000	99.887431  
1469.000000	99.823573  
1468.000000	99.764313  
1467.000000	99.712993  
1466.000000	99.670000  
1465.000000	99.634227  
1464.000000	99.605278  
1463.000000	99.583164  
1462.000000	99.567201  
1461.000000	99.555836  
1460.000000	99.548012  
1459.000000	99.543072  
1458.000000	99.539745  
1457.000000	99.537148  
1456.000000	99.535260  
1455.000000	99.534338  
1454.000000	99.534460  
1453.000000	99.535746  
1452.000000	99.538809  
1451.000000	99.543907  
1450.000000	99.550650  
1449.000000	99.558944  
1448.000000	99.568682  
1447.000000	99.579448  
1446.000000	99.590483  
1445.000000	99.601036  
1444.000000	99.610859  
1443.000000	99.620179  
1442.000000	99.629060  
1441.000000	99.636860  
1440.000000	99.642557  
1439.000000	99.645655  
1438.000000	99.646251  
1437.000000	99.644672  
1436.000000	99.641355  
1435.000000	99.636599  
1434.000000	99.630437  
1433.000000	99.622771  
1432.000000	99.614014  
1431.000000	99.605145  
1430.000000	99.596772  
1429.000000	99.588894  
1428.000000	99.581284  
1427.000000	99.573932  
1426.000000	99.567326  
1425.000000	99.562179  
1424.000000	99.559148  
1423.000000	99.558461  
1422.000000	99.559887  
1421.000000	99.563216  
1420.000000	99.568547  
1419.000000	99.576352  
1418.000000	99.586993  
1417.000000	99.600298  
1416.000000	99.615770  
1415.000000	99.632841  
1414.000000	99.651089  
1413.000000	99.670208  
1412.000000	99.689920  
1411.000000	99.710071  
1410.000000	99.730556  
1409.000000	99.751246  
1408.000000	99.771796  
1407.000000	99.791726  
1406.000000	99.810780  
1405.000000	99.829003  
1404.000000	99.846503  
1403.000000	99.863102  
1402.000000	99.878343  
1401.000000	99.891739  
1400.000000	99.902754  
1399.000000	99.910949  
1398.000000	99.916303  
1397.000000	99.919153  
1396.000000	99.919611  
1395.000000	99.917536  
1394.000000	99.912961  
1393.000000	99.905936  
1392.000000	99.896099  
1391.000000	99.882999  
1390.000000	99.866785  
1389.000000	99.847913  
1388.000000	99.826374  
1387.000000	99.801965  
1386.000000	99.774769  
1385.000000	99.745199  
1384.000000	99.714012  
1383.000000	99.682451  
1382.000000	99.651998  
1381.000000	99.623654  
1380.000000	99.597761  
1379.000000	99.574550  
1378.000000	99.554482  
1377.000000	99.538144  
1376.000000	99.525975  
1375.000000	99.518067  
1374.000000	99.514136  
1373.000000	99.513705  
1372.000000	99.516334  
1371.000000	99.521719  
1370.000000	99.529631  
1369.000000	99.539828  
1368.000000	99.552010  
1367.000000	99.565845  
1366.000000	99.580936  
1365.000000	99.596917  
1364.000000	99.613548  
1363.000000	99.630688  
1362.000000	99.648198  
1361.000000	99.665961  
1360.000000	99.683880  
1359.000000	99.701733  
1358.000000	99.719124  
1357.000000	99.735697  
1356.000000	99.751263  
1355.000000	99.765648  
1354.000000	99.778537  
1353.000000	99.789659  
1352.000000	99.798948  
1351.000000	99.806437  
1350.000000	99.812040  
1349.000000	99.815632  
1348.000000	99.817307  
1347.000000	99.817397  
1346.000000	99.816234  
1345.000000	99.814026  
1344.000000	99.810731  
1343.000000	99.806066  
1342.000000	99.799795  
1341.000000	99.792093  
1340.000000	99.783556  
1339.000000	99.774806  
1338.000000	99.766143  
1337.000000	99.757638  
1336.000000	99.749459  
1335.000000	99.741994  
1334.000000	99.735650  
1333.000000	99.730627  
1332.000000	99.726889  
1331.000000	99.724234  
1330.000000	99.722306  
1329.000000	99.720756  
1328.000000	99.719383  
1327.000000	99.718063  
1326.000000	99.716606  
1325.000000	99.714808  
1324.000000	99.712550  
1323.000000	99.709750  
1322.000000	99.706302  
1321.000000	99.702231  
1320.000000	99.697838  
1319.000000	99.693615  
1318.000000	99.690077  
1317.000000	99.687744  
1316.000000	99.687203  
1315.000000	99.689016  
1314.000000	99.693538  
1313.000000	99.700899  
1312.000000	99.711107  
1311.000000	99.724034  
1310.000000	99.739275  
1309.000000	99.756188  
1308.000000	99.774070  
1307.000000	99.792233  
1306.000000	99.809964  
1305.000000	99.826554  
1304.000000	99.841390  
1303.000000	99.853979  
1302.000000	99.863906  
1301.000000	99.870880  
1300.000000	99.874750  
1299.000000	99.875433  
1298.000000	99.872850  
1297.000000	99.866983  
1296.000000	99.857944  
1295.000000	99.845904  
1294.000000	99.830950  
1293.000000	99.813112  
1292.000000	99.792526  
1291.000000	99.769487  
1290.000000	99.744339  
1289.000000	99.717382  
1288.000000	99.688927  
1287.000000	99.659325  
1286.000000	99.628907  
1285.000000	99.597999  
1284.000000	99.567019  
1283.000000	99.536425  
1282.000000	99.506452  
1281.000000	99.476994  
1280.000000	99.447847  
1279.000000	99.419017  
1278.000000	99.390789  
1277.000000	99.363555  
1276.000000	99.337581  
1275.000000	99.312766  
1274.000000	99.288691  
1273.000000	99.265087  
1272.000000	99.242311  
1271.000000	99.221141  
1270.000000	99.202043  
1269.000000	99.184767  
1268.000000	99.168689  
1267.000000	99.153351  
1266.000000	99.138665  
1265.000000	99.124778  
1264.000000	99.111788  
1263.000000	99.099384  
1262.000000	99.086774  
1261.000000	99.073168  
1260.000000	99.058382  
1259.000000	99.042756  
1258.000000	99.026484  
1257.000000	99.009281  
1256.000000	98.990774  
1255.000000	98.970957  
1254.000000	98.950202  
1253.000000	98.929023  
1252.000000	98.907939  
1251.000000	98.887327  
1250.000000	98.867303  
1249.000000	98.847915  
1248.000000	98.829499  
1247.000000	98.812660  
1246.000000	98.797915  
1245.000000	98.785598  
1244.000000	98.776088  
1243.000000	98.769738  
1242.000000	98.766508  
1241.000000	98.766051  
1240.000000	98.768306  
1239.000000	98.773679  
1238.000000	98.782503  
1237.000000	98.794586  
1236.000000	98.809387  
1235.000000	98.826353  
1234.000000	98.845020  
1233.000000	98.865152  
1232.000000	98.886918  
1231.000000	98.910679  
1230.000000	98.936510  
1229.000000	98.964105  
1228.000000	98.993145  
1227.000000	99.023454  
1226.000000	99.054827  
1225.000000	99.087035  
1224.000000	99.120068  
1223.000000	99.154058  
1222.000000	99.188907  
1221.000000	99.224262  
1220.000000	99.259914  
1219.000000	99.295968  
1218.000000	99.332569  
1217.000000	99.369662  
1216.000000	99.407053  
1215.000000	99.444492  
1214.000000	99.481680  
1213.000000	99.518436  
1212.000000	99.554855  
1211.000000	99.591136  
1210.000000	99.627256  
1209.000000	99.663038  
1208.000000	99.698523  
1207.000000	99.734045  
1206.000000	99.769950  
1205.000000	99.806426  
1204.000000	99.843572  
1203.000000	99.881371  
1202.000000	99.919539  
1201.000000	99.957610  
1200.000000	99.995240  
1199.000000	100.032322 
1198.000000	100.068829 
1197.000000	100.104626 
1196.000000	100.139379 
1195.000000	100.172463 
1194.000000	100.203029 
1193.000000	100.230347 
1192.000000	100.254150 
1191.000000	100.274560 
1190.000000	100.291655 
1189.000000	100.305165 
1188.000000	100.314554 
1187.000000	100.319305 
1186.000000	100.319112 
1185.000000	100.313892 
1184.000000	100.303632 
1183.000000	100.288150 
1182.000000	100.266976 
1181.000000	100.239458 
1180.000000	100.205049 
1179.000000	100.163451 
1178.000000	100.114474 
1177.000000	100.057858 
1176.000000	99.993339  
1175.000000	99.920911  
1174.000000	99.841027  
1173.000000	99.754642  
1172.000000	99.663235  
1171.000000	99.568751  
1170.000000	99.473423  
1169.000000	99.379682  
1168.000000	99.290221  
1167.000000	99.207826  
1166.000000	99.134802  
1165.000000	99.072613  
1164.000000	99.022074  
1163.000000	98.983523  
1162.000000	98.956635  
1161.000000	98.940416  
1160.000000	98.933627  
1159.000000	98.935056  
1158.000000	98.943401  
1157.000000	98.957301  
1156.000000	98.975617  
1155.000000	98.997378  
1154.000000	99.021429  
1153.000000	99.046506  
1152.000000	99.071700  
1151.000000	99.096503  
1150.000000	99.120444  
1149.000000	99.143088  
1148.000000	99.164374  
1147.000000	99.184431  
1146.000000	99.202865  
1145.000000	99.218584  
1144.000000	99.230445  
1143.000000	99.237721  
1142.000000	99.239852  
1141.000000	99.236095  
1140.000000	99.225603  
1139.000000	99.207625  
1138.000000	99.181583  
1137.000000	99.147330  
1136.000000	99.105524  
1135.000000	99.057428  
1134.000000	99.004147  
1133.000000	98.946261  
1132.000000	98.884286  
1131.000000	98.819144  
1130.000000	98.751994  
1129.000000	98.683939  
1128.000000	98.616103  
1127.000000	98.549540  
1126.000000	98.484810  
1125.000000	98.422071  
1124.000000	98.361882  
1123.000000	98.305385  
1122.000000	98.253247  
1121.000000	98.204802  
1120.000000	98.158667  
1119.000000	98.113942  
1118.000000	98.070625  
1117.000000	98.029348  
1116.000000	97.991017  
1115.000000	97.956233  
1114.000000	97.924680  
1113.000000	97.895458  
1112.000000	97.868268  
1111.000000	97.843830  
1110.000000	97.822867  
1109.000000	97.805141  
1108.000000	97.789671  
1107.000000	97.775322  
1106.000000	97.760981  
1105.000000	97.745868  
1104.000000	97.730099  
1103.000000	97.714503  
1102.000000	97.699503  
1101.000000	97.684602  
1100.000000	97.669162  
1099.000000	97.653076  
1098.000000	97.636445  
1097.000000	97.619224  
1096.000000	97.601497  
1095.000000	97.583477  
1094.000000	97.564785  
1093.000000	97.544306  
1092.000000	97.521167  
1091.000000	97.495443  
1090.000000	97.467650  
1089.000000	97.438044  
1088.000000	97.406706  
1087.000000	97.373717  
1086.000000	97.338887  
1085.000000	97.301831  
1084.000000	97.262652  
1083.000000	97.222028  
1082.000000	97.180370  
1081.000000	97.137501  
1080.000000	97.093542  
1079.000000	97.049506  
1078.000000	97.006605  
1077.000000	96.965503  
1076.000000	96.926498  
1075.000000	96.889730  
1074.000000	96.854861  
1073.000000	96.821165  
1072.000000	96.788218  
1071.000000	96.755804  
1070.000000	96.722843  
1069.000000	96.687124  
1068.000000	96.646471  
1067.000000	96.599724  
1066.000000	96.546632  
1065.000000	96.487726  
1064.000000	96.424555  
1063.000000	96.359124  
1062.000000	96.292517  
1061.000000	96.224665  
1060.000000	96.155691  
1059.000000	96.086729  
1058.000000	96.019116  
1057.000000	95.953557  
1056.000000	95.890394  
1055.000000	95.829790  
1054.000000	95.771132  
1053.000000	95.713262  
1052.000000	95.656011  
1051.000000	95.600740  
1050.000000	95.548964  
1049.000000	95.501274  
1048.000000	95.457748  
1047.000000	95.418168  
1046.000000	95.381473  
1045.000000	95.346234  
1044.000000	95.312082  
1043.000000	95.279590  
1042.000000	95.248628  
1041.000000	95.218084  
1040.000000	95.187489  
1039.000000	95.157742  
1038.000000	95.129882  
1037.000000	95.104285  
1036.000000	95.081530  
1035.000000	95.062952  
1034.000000	95.049712  
1033.000000	95.042102  
1032.000000	95.040183  
1031.000000	95.044187  
1030.000000	95.053927  
1029.000000	95.068688  
1028.000000	95.088086  
1027.000000	95.112149  
1026.000000	95.140378  
1025.000000	95.171790  
1024.000000	95.206237  
1023.000000	95.244686  
1022.000000	95.287776  
1021.000000	95.334974  
1020.000000	95.385410  
1019.000000	95.438580  
1018.000000	95.493881  
1017.000000	95.550395  
1016.000000	95.607512  
1015.000000	95.664989  
1014.000000	95.722037  
1013.000000	95.777189  
1012.000000	95.829480  
1011.000000	95.879151  
1010.000000	95.926978  
1009.000000	95.973551  
1008.000000	96.019330  
1007.000000	96.064524  
1006.000000	96.108552  
1005.000000	96.150300  
1004.000000	96.189300  
1003.000000	96.226123  
1002.000000	96.261376  
1001.000000	96.294903  
1000.000000	96.326229  
999.000000	 96.355289  
998.000000	 96.382606  
997.000000	 96.409316  
996.000000	 96.437096  
995.000000	 96.467328  
994.000000	 96.500103  
993.000000	 96.534653  
992.000000	 96.570936  
991.000000	 96.610152  
990.000000	 96.653510  
989.000000	 96.701166  
988.000000	 96.752583  
987.000000	 96.807307  
986.000000	 96.865147  
985.000000	 96.926206  
984.000000	 96.990939  
983.000000	 97.059661  
982.000000	 97.131778  
981.000000	 97.205891  
980.000000	 97.280691  
979.000000	 97.355317  
978.000000	 97.428986  
977.000000	 97.500958  
976.000000	 97.570902  
975.000000	 97.638715  
974.000000	 97.703978  
973.000000	 97.766225  
972.000000	 97.825788  
971.000000	 97.883716  
970.000000	 97.940797  
969.000000	 97.997278  
968.000000	 98.053580  
967.000000	 98.110562  
966.000000	 98.168801  
965.000000	 98.228159  
964.000000	 98.288296  
963.000000	 98.349124  
962.000000	 98.410547  
961.000000	 98.472243  
960.000000	 98.533909  
959.000000	 98.595384  
958.000000	 98.656455  
957.000000	 98.716976  
956.000000	 98.777225  
955.000000	 98.837640  
954.000000	 98.898028  
953.000000	 98.957459  
952.000000	 99.015071  
951.000000	 99.070638  
950.000000	 99.124237  
949.000000	 99.175747  
948.000000	 99.224847  
947.000000	 99.271166  
946.000000	 99.314353  
945.000000	 99.354353  
944.000000	 99.391718  
943.000000	 99.427279  
942.000000	 99.461336  
941.000000	 99.493441  
940.000000	 99.523082  
939.000000	 99.550293  
938.000000	 99.575495  
937.000000	 99.599076  
936.000000	 99.621326  
935.000000	 99.642530  
934.000000	 99.662903  
933.000000	 99.682561  
932.000000	 99.701667  
931.000000	 99.720439  
930.000000	 99.739005  
929.000000	 99.757415  
928.000000	 99.775761  
927.000000	 99.793996  
926.000000	 99.811706  
925.000000	 99.828472  
924.000000	 99.844573  
923.000000	 99.860955  
922.000000	 99.878327  
921.000000	 99.896502  
920.000000	 99.914669  
919.000000	 99.932016  
918.000000	 99.948040  
917.000000	 99.962630  
916.000000	 99.976060  
915.000000	 99.988598  
914.000000	 99.999924  
913.000000	 100.009135 
912.000000	 100.015482 
911.000000	 100.018878 
910.000000	 100.019655 
909.000000	 100.018132 
908.000000	 100.014593 
907.000000	 100.009277 
906.000000	 100.002103 
905.000000	 99.992642  
904.000000	 99.980707  
903.000000	 99.966833  
902.000000	 99.952069  
901.000000	 99.937536  
900.000000	 99.924391  
899.000000	 99.913905  
898.000000	 99.907226  
897.000000	 99.905174  
896.000000	 99.908458  
895.000000	 99.917832  
894.000000	 99.933745  
893.000000	 99.955903  
892.000000	 99.983307  
891.000000	 100.014579 
890.000000	 100.048219 
889.000000	 100.082860 
888.000000	 100.117502 
887.000000	 100.151437 
886.000000	 100.183894 
885.000000	 100.213923 
884.000000	 100.240656 
883.000000	 100.263569 
882.000000	 100.282536 
881.000000	 100.297824 
880.000000	 100.309927 
879.000000	 100.319129 
878.000000	 100.325209 
877.000000	 100.327925 
876.000000	 100.327814 
875.000000	 100.326243 
874.000000	 100.324565 
873.000000	 100.323416 
872.000000	 100.322848 
871.000000	 100.322820 
870.000000	 100.323513 
869.000000	 100.325376 
868.000000	 100.328898 
867.000000	 100.334062 
866.000000	 100.340007 
865.000000	 100.345495 
864.000000	 100.349752 
863.000000	 100.352689 
862.000000	 100.354388 
861.000000	 100.354673 
860.000000	 100.353136 
859.000000	 100.349246 
858.000000	 100.342479 
857.000000	 100.332833 
856.000000	 100.321362 
855.000000	 100.309843 
854.000000	 100.299699 
853.000000	 100.291419 
852.000000	 100.284994 
851.000000	 100.280481 
850.000000	 100.278076 
849.000000	 100.278128 
848.000000	 100.281234 
847.000000	 100.287825 
846.000000	 100.297345 
845.000000	 100.308216 
844.000000	 100.318982 
843.000000	 100.329237 
842.000000	 100.339279 
841.000000	 100.349188 
840.000000	 100.358554 
839.000000	 100.366877 
838.000000	 100.373953 
837.000000	 100.379949 
836.000000	 100.385247 
835.000000	 100.390112 
834.000000	 100.394521 
833.000000	 100.398496 
832.000000	 100.402532 
831.000000	 100.407275 
830.000000	 100.412626 
829.000000	 100.417539 
828.000000	 100.420934 
827.000000	 100.422545 
826.000000	 100.422694 
825.000000	 100.421613 
824.000000	 100.419331 
823.000000	 100.416005 
822.000000	 100.412105 
821.000000	 100.408448 
820.000000	 100.406110 
819.000000	 100.405909 
818.000000	 100.407695 
817.000000	 100.410431 
816.000000	 100.413125 
815.000000	 100.415478 
814.000000	 100.417587 
813.000000	 100.419411 
812.000000	 100.420739 
811.000000	 100.421366 
810.000000	 100.421074 
809.000000	 100.419659 
808.000000	 100.417157 
807.000000	 100.413880 
806.000000	 100.410102 
805.000000	 100.405889 
804.000000	 100.401285 
803.000000	 100.396443 
802.000000	 100.391565 
801.000000	 100.387061 
800.000000	 100.383822 
799.000000	 100.382957 
798.000000	 100.385069 
797.000000	 100.389942 
796.000000	 100.396874 
795.000000	 100.404886 
794.000000	 100.412648 
793.000000	 100.418835 
792.000000	 100.422871 
791.000000	 100.424992 
790.000000	 100.425402 
789.000000	 100.423759 
788.000000	 100.419716 
787.000000	 100.413624 
786.000000	 100.406341 
785.000000	 100.398357 
784.000000	 100.389089 
783.000000	 100.376782 
782.000000	 100.359123 
781.000000	 100.334424 
780.000000	 100.302466 
779.000000	 100.264146 
778.000000	 100.220480 
777.000000	 100.172471 
776.000000	 100.121987 
775.000000	 100.072166 
774.000000	 100.026633 
773.000000	 99.988646  
772.000000	 99.961003  
771.000000	 99.945913  
770.000000	 99.944300  
769.000000	 99.955376  
768.000000	 99.977152  
767.000000	 100.007089 
766.000000	 100.042407 
765.000000	 100.080574 
764.000000	 100.119921 
763.000000	 100.159428 
762.000000	 100.197740 
761.000000	 100.232939 
760.000000	 100.263570 
759.000000	 100.289528 
758.000000	 100.311755 
757.000000	 100.331300 
756.000000	 100.348649 
755.000000	 100.363446 
754.000000	 100.374757 
753.000000	 100.382161 
752.000000	 100.386775 
751.000000	 100.390693 
750.000000	 100.395194 
749.000000	 100.399924 
748.000000	 100.403937 
747.000000	 100.406941 
746.000000	 100.409302 
745.000000	 100.411495 
744.000000	 100.413947 
743.000000	 100.416897 
742.000000	 100.420002 
741.000000	 100.422481 
740.000000	 100.423975 
739.000000	 100.424876 
738.000000	 100.425568 
737.000000	 100.425764 
736.000000	 100.424900 
735.000000	 100.422742 
734.000000	 100.419348 
733.000000	 100.414759 
732.000000	 100.409011 
731.000000	 100.402109 
730.000000	 100.393714 
729.000000	 100.383373 
728.000000	 100.371415 
727.000000	 100.359069 
726.000000	 100.347296 
725.000000	 100.335946 
724.000000	 100.324520 
723.000000	 100.313204 
722.000000	 100.302892 
721.000000	 100.295002 
720.000000	 100.291434 
719.000000	 100.293642 
718.000000	 100.301016 
717.000000	 100.310845 
716.000000	 100.320645 
715.000000	 100.330166 
714.000000	 100.340665 
713.000000	 100.352561 
712.000000	 100.364157 
711.000000	 100.372475 
710.000000	 100.375164 
709.000000	 100.372109 
708.000000	 100.365468 
707.000000	 100.357331 
706.000000	 100.347228 
705.000000	 100.332908 
704.000000	 100.313778 
703.000000	 100.292526 
702.000000	 100.272576 
701.000000	 100.255122 
700.000000	 100.239696 
699.000000	 100.226382 
698.000000	 100.216484 
697.000000	 100.211591 
696.000000	 100.212656 
695.000000	 100.219692 
694.000000	 100.231427 
693.000000	 100.245855 
692.000000	 100.261879 
691.000000	 100.279739 
690.000000	 100.299689 
689.000000	 100.321103 
688.000000	 100.343179 
687.000000	 100.365278 
686.000000	 100.385605 
685.000000	 100.401258 
684.000000	 100.410953 
683.000000	 100.416398 
682.000000	 100.419623 
681.000000	 100.419724 
680.000000	 100.414301 
679.000000	 100.402338 
678.000000	 100.384472 
677.000000	 100.362555 
676.000000	 100.340976 
675.000000	 100.326990 
674.000000	 100.328477 
673.000000	 100.349721 
672.000000	 100.381217 
671.000000	 100.399921 
670.000000	 100.399031 
669.000000	 100.387485 
668.000000	 100.372463 
667.000000	 100.356346 
666.000000	 100.337096 
665.000000	 100.308822 
664.000000	 100.266648 
663.000000	 100.220052 
662.000000	 100.192059 
661.000000	 100.187017 
660.000000	 100.193603 
659.000000	 100.206119 
658.000000	 100.224561 
657.000000	 100.247258 
656.000000	 100.269514 
655.000000	 100.287482 
654.000000	 100.300616 
653.000000	 100.310899 
652.000000	 100.321601 
651.000000	 100.334683 
650.000000	 100.347751 
649.000000	 100.355211 
648.000000	 100.354188 
647.000000	 100.347592 
646.000000	 100.340156 
645.000000	 100.332893 
644.000000	 100.323496 
643.000000	 100.310433 
642.000000	 100.294313 
641.000000	 100.276880 
640.000000	 100.261178 
639.000000	 100.251273 
638.000000	 100.248892 
637.000000	 100.251203 
636.000000	 100.254165 
635.000000	 100.256603 
634.000000	 100.259582 
633.000000	 100.263705 
632.000000	 100.269153 
631.000000	 100.276722 
630.000000	 100.286677 
629.000000	 100.298346 
628.000000	 100.312171 
627.000000	 100.329590 
626.000000	 100.349813 
625.000000	 100.369315 
624.000000	 100.385526 
623.000000	 100.398056 
622.000000	 100.404719 
621.000000	 100.400490 
620.000000	 100.383870 
619.000000	 100.359999 
618.000000	 100.334554 
617.000000	 100.309141 
616.000000	 100.284174 
615.000000	 100.260914 
614.000000	 100.238607 
613.000000	 100.215812 
612.000000	 100.198112 
611.000000	 100.196880 
610.000000	 100.215362 
609.000000	 100.242862 
608.000000	 100.265884 
607.000000	 100.278669 
606.000000	 100.281895 
605.000000	 100.277311 
604.000000	 100.267067 
603.000000	 100.252485 
602.000000	 100.230751 
601.000000	 100.199698 
600.000000	 100.167388 
599.000000	 100.148535 
598.000000	 100.149760 
597.000000	 100.164910 
596.000000	 100.186827 
595.000000	 100.215062 
594.000000	 100.248491 
593.000000	 100.279836 
592.000000	 100.304689 
591.000000	 100.326193 
590.000000	 100.344151 
589.000000	 100.349710 
588.000000	 100.338217 
587.000000	 100.319175 
586.000000	 100.303118 
585.000000	 100.284926 
584.000000	 100.256781 
583.000000	 100.229636 
582.000000	 100.223386 
581.000000	 100.240361 
580.000000	 100.266339 
579.000000	 100.291324 
578.000000	 100.317568 
577.000000	 100.347618 
576.000000	 100.381974 
575.000000	 100.418698 
574.000000	 100.443409 
573.000000	 100.435715 
572.000000	 100.397746 
571.000000	 100.358427 
570.000000	 100.337559 
569.000000	 100.321755 
568.000000	 100.294997 
567.000000	 100.268881 
566.000000	 100.262901 
565.000000	 100.274688 
564.000000	 100.292203 
563.000000	 100.316094 
562.000000	 100.349507 
561.000000	 100.382239 
560.000000	 100.400862 
559.000000	 100.403522 
558.000000	 100.396858 
557.000000	 100.388534 
556.000000	 100.399021 
555.000000	 100.454435 
554.000000	 100.551019 
553.000000	 100.682582 
552.000000	 100.860160 
551.000000	 101.086840 
550.000000	 101.350690 

