PE IR                   SPECTRUM    ASCII       PEDS        1.60        
  -1
FR220605.ASC
22/05/09
15:00:03.00
22/05/09
15:00:03.00
Administrator
Endocarpo sem nenhum tratamento - IR/UATR 80 N - Vitor
550.000000
20









FRONTIER FT-IR/NIR,CPU32 MAIN 00.09.1072 09-JANUARY-2014 12:55:01
MIR TGS
MIR
OPTKBR
100262
0.200000

4.000000
FORTE
RAZ„O
ESPECTRO
MAGNITUDE
UNIVERSAL ATR
DUPLO

COMBINADO


0


#HDR
-1
-1
#GR
CM-1
%T
0.00002384185791015625
0.0
4000.000000
-1.000000
3451
8
99.947366
74.951206
#DATA
4000.000000	99.879534 
3999.000000	99.880683 
3998.000000	99.881832 
3997.000000	99.883069 
3996.000000	99.884933 
3995.000000	99.887908 
3994.000000	99.891393 
3993.000000	99.893633 
3992.000000	99.892937 
3991.000000	99.889307 
3990.000000	99.884599 
3989.000000	99.881174 
3988.000000	99.880364 
3987.000000	99.881956 
3986.000000	99.884915 
3985.000000	99.888089 
3984.000000	99.890548 
3983.000000	99.891598 
3982.000000	99.890948 
3981.000000	99.889040 
3980.000000	99.886962 
3979.000000	99.885895 
3978.000000	99.886545 
3977.000000	99.888965 
3976.000000	99.892687 
3975.000000	99.896837 
3974.000000	99.900152 
3973.000000	99.901239 
3972.000000	99.899394 
3971.000000	99.895332 
3970.000000	99.890898 
3969.000000	99.888029 
3968.000000	99.887537 
3967.000000	99.888939 
3966.000000	99.891166 
3965.000000	99.893239 
3964.000000	99.894668 
3963.000000	99.895335 
3962.000000	99.895318 
3961.000000	99.894711 
3960.000000	99.893580 
3959.000000	99.892159 
3958.000000	99.890853 
3957.000000	99.889879 
3956.000000	99.888863 
3955.000000	99.887022 
3954.000000	99.884066 
3953.000000	99.881024 
3952.000000	99.879830 
3951.000000	99.881674 
3950.000000	99.885675 
3949.000000	99.889368 
3948.000000	99.890993 
3947.000000	99.890842 
3946.000000	99.890423 
3945.000000	99.890898 
3944.000000	99.892228 
3943.000000	99.893536 
3942.000000	99.894101 
3941.000000	99.894159 
3940.000000	99.894694 
3939.000000	99.896532 
3938.000000	99.899737 
3937.000000	99.903688 
3936.000000	99.907591 
3935.000000	99.910987 
3934.000000	99.913605 
3933.000000	99.914899 
3932.000000	99.914148 
3931.000000	99.911240 
3930.000000	99.907376 
3929.000000	99.904506 
3928.000000	99.903984 
3927.000000	99.905703 
3926.000000	99.908217 
3925.000000	99.909413 
3924.000000	99.907950 
3923.000000	99.904821 
3922.000000	99.902732 
3921.000000	99.903803 
3920.000000	99.907813 
3919.000000	99.912524 
3918.000000	99.915628 
3917.000000	99.916145 
3916.000000	99.914683 
3915.000000	99.912581 
3914.000000	99.910725 
3913.000000	99.909402 
3912.000000	99.908491 
3911.000000	99.908411 
3910.000000	99.910042 
3909.000000	99.913638 
3908.000000	99.918118 
3907.000000	99.922032 
3906.000000	99.924756 
3905.000000	99.926277 
3904.000000	99.925652 
3903.000000	99.921450 
3902.000000	99.914458 
3901.000000	99.908218 
3900.000000	99.905826 
3899.000000	99.906665 
3898.000000	99.907702 
3897.000000	99.907649 
3896.000000	99.907959 
3895.000000	99.910512 
3894.000000	99.915654 
3893.000000	99.922241 
3892.000000	99.927567 
3891.000000	99.928715 
3890.000000	99.924431 
3889.000000	99.916412 
3888.000000	99.909090 
3887.000000	99.907233 
3886.000000	99.912225 
3885.000000	99.919360 
3884.000000	99.922240 
3883.000000	99.920349 
3882.000000	99.917860 
3881.000000	99.917432 
3880.000000	99.917770 
3879.000000	99.916236 
3878.000000	99.912902 
3877.000000	99.910996 
3876.000000	99.914459 
3875.000000	99.924263 
3874.000000	99.935812 
3873.000000	99.942137 
3872.000000	99.941171 
3871.000000	99.937603 
3870.000000	99.936312 
3869.000000	99.936315 
3868.000000	99.933833 
3867.000000	99.929050 
3866.000000	99.925908 
3865.000000	99.926569 
3864.000000	99.928734 
3863.000000	99.929047 
3862.000000	99.927257 
3861.000000	99.926090 
3860.000000	99.927549 
3859.000000	99.931038 
3858.000000	99.933270 
3857.000000	99.930659 
3856.000000	99.923181 
3855.000000	99.916407 
3854.000000	99.915954 
3853.000000	99.917448 
3852.000000	99.913914 
3851.000000	99.909541 
3850.000000	99.910142 
3849.000000	99.915434 
3848.000000	99.921509 
3847.000000	99.925969 
3846.000000	99.929321 
3845.000000	99.933345 
3844.000000	99.938868 
3843.000000	99.944529 
3842.000000	99.947366 
3841.000000	99.945560 
3840.000000	99.939832 
3839.000000	99.932803 
3838.000000	99.927164 
3837.000000	99.924655 
3836.000000	99.925234 
3835.000000	99.927235 
3834.000000	99.928762 
3833.000000	99.929165 
3832.000000	99.929173 
3831.000000	99.929457 
3830.000000	99.930079 
3829.000000	99.931277 
3828.000000	99.933780 
3827.000000	99.937923 
3826.000000	99.941611 
3825.000000	99.941023 
3824.000000	99.934453 
3823.000000	99.925043 
3822.000000	99.918759 
3821.000000	99.918574 
3820.000000	99.921001 
3819.000000	99.921346 
3818.000000	99.919183 
3817.000000	99.916413 
3816.000000	99.914339 
3815.000000	99.912971 
3814.000000	99.912592 
3813.000000	99.914676 
3812.000000	99.919104 
3811.000000	99.922656 
3810.000000	99.922432 
3809.000000	99.919511 
3808.000000	99.918163 
3807.000000	99.920644 
3806.000000	99.923642 
3805.000000	99.923061 
3804.000000	99.919394 
3803.000000	99.916555 
3802.000000	99.917194 
3801.000000	99.919433 
3800.000000	99.919675 
3799.000000	99.918155 
3798.000000	99.916996 
3797.000000	99.916406 
3796.000000	99.915338 
3795.000000	99.913530 
3794.000000	99.912100 
3793.000000	99.912543 
3792.000000	99.915410 
3791.000000	99.919927 
3790.000000	99.924835 
3789.000000	99.928898 
3788.000000	99.931192 
3787.000000	99.931538 
3786.000000	99.930723 
3785.000000	99.929761 
3784.000000	99.928804 
3783.000000	99.927095 
3782.000000	99.924260 
3781.000000	99.921136 
3780.000000	99.918758 
3779.000000	99.917289 
3778.000000	99.916288 
3777.000000	99.915952 
3776.000000	99.916877 
3775.000000	99.918662 
3774.000000	99.919579 
3773.000000	99.918583 
3772.000000	99.917407 
3771.000000	99.919133 
3770.000000	99.923522 
3769.000000	99.925804 
3768.000000	99.922294 
3767.000000	99.914457 
3766.000000	99.906897 
3765.000000	99.903483 
3764.000000	99.904960 
3763.000000	99.909702 
3762.000000	99.915929 
3761.000000	99.922122 
3760.000000	99.926301 
3759.000000	99.927479 
3758.000000	99.927042 
3757.000000	99.926595 
3756.000000	99.925506 
3755.000000	99.922631 
3754.000000	99.918473 
3753.000000	99.914193 
3752.000000	99.908926 
3751.000000	99.900650 
3750.000000	99.890834 
3749.000000	99.883661 
3748.000000	99.878692 
3747.000000	99.872005 
3746.000000	99.863877 
3745.000000	99.859300 
3744.000000	99.861024 
3743.000000	99.865298 
3742.000000	99.869421 
3741.000000	99.874960 
3740.000000	99.882688 
3739.000000	99.891371 
3738.000000	99.900810 
3737.000000	99.911000 
3736.000000	99.918806 
3735.000000	99.918509 
3734.000000	99.909227 
3733.000000	99.897758 
3732.000000	99.891397 
3731.000000	99.891651 
3730.000000	99.895437 
3729.000000	99.899646 
3728.000000	99.903253 
3727.000000	99.905819 
3726.000000	99.906387 
3725.000000	99.904777 
3724.000000	99.903155 
3723.000000	99.903470 
3722.000000	99.904173 
3721.000000	99.901854 
3720.000000	99.895330 
3719.000000	99.886775 
3718.000000	99.878706 
3717.000000	99.871144 
3716.000000	99.862803 
3715.000000	99.854435 
3714.000000	99.849655 
3713.000000	99.850643 
3712.000000	99.854538 
3711.000000	99.854211 
3710.000000	99.845959 
3709.000000	99.833045 
3708.000000	99.821213 
3707.000000	99.813960 
3706.000000	99.810903 
3705.000000	99.810187 
3704.000000	99.809293 
3703.000000	99.806463 
3702.000000	99.799949 
3701.000000	99.789737 
3700.000000	99.778293 
3699.000000	99.769665 
3698.000000	99.766747 
3697.000000	99.769358 
3696.000000	99.773515 
3695.000000	99.773822 
3694.000000	99.768344 
3693.000000	99.759251 
3692.000000	99.750981 
3691.000000	99.746213 
3690.000000	99.744382 
3689.000000	99.741961 
3688.000000	99.737181 
3687.000000	99.731804 
3686.000000	99.727670 
3685.000000	99.725876 
3684.000000	99.726478 
3683.000000	99.728938 
3682.000000	99.731482 
3681.000000	99.732116 
3680.000000	99.728414 
3679.000000	99.718078 
3678.000000	99.700674 
3677.000000	99.679640 
3676.000000	99.659721 
3675.000000	99.642412 
3674.000000	99.626640 
3673.000000	99.611761 
3672.000000	99.597486 
3671.000000	99.582968 
3670.000000	99.566516 
3669.000000	99.547068 
3668.000000	99.526896 
3667.000000	99.508986 
3666.000000	99.493382 
3665.000000	99.478389 
3664.000000	99.463038 
3663.000000	99.447083 
3662.000000	99.430586 
3661.000000	99.413623 
3660.000000	99.396143 
3659.000000	99.377432 
3658.000000	99.356201 
3657.000000	99.331922 
3656.000000	99.306610 
3655.000000	99.283603 
3654.000000	99.263748 
3653.000000	99.244886 
3652.000000	99.224585 
3651.000000	99.201618 
3650.000000	99.174482 
3649.000000	99.141047 
3648.000000	99.103179 
3647.000000	99.067811 
3646.000000	99.039234 
3645.000000	99.016313 
3644.000000	98.996059 
3643.000000	98.976146 
3642.000000	98.954684 
3641.000000	98.929531 
3640.000000	98.899738 
3639.000000	98.867296 
3638.000000	98.836019 
3637.000000	98.808476 
3636.000000	98.784177 
3635.000000	98.760487 
3634.000000	98.734118 
3633.000000	98.702545 
3632.000000	98.665133 
3631.000000	98.623787 
3630.000000	98.582899 
3629.000000	98.547447 
3628.000000	98.519363 
3627.000000	98.496598 
3626.000000	98.475441 
3625.000000	98.452590 
3624.000000	98.426980 
3623.000000	98.400328 
3622.000000	98.375463 
3621.000000	98.353606 
3620.000000	98.332364 
3619.000000	98.307484 
3618.000000	98.277817 
3617.000000	98.246467 
3616.000000	98.215919 
3615.000000	98.185512 
3614.000000	98.153440 
3613.000000	98.119544 
3612.000000	98.086034 
3611.000000	98.054966 
3610.000000	98.026070 
3609.000000	97.997596 
3608.000000	97.968835 
3607.000000	97.940361 
3606.000000	97.911891 
3605.000000	97.882286 
3604.000000	97.851072 
3603.000000	97.819628 
3602.000000	97.789704 
3601.000000	97.762224 
3600.000000	97.736757 
3599.000000	97.711662 
3598.000000	97.685317 
3597.000000	97.656939 
3596.000000	97.627613 
3595.000000	97.598971 
3594.000000	97.571138 
3593.000000	97.542206 
3592.000000	97.511450 
3591.000000	97.479938 
3590.000000	97.449407 
3589.000000	97.419854 
3588.000000	97.389136 
3587.000000	97.355126 
3586.000000	97.318963 
3585.000000	97.284292 
3584.000000	97.253201 
3583.000000	97.225062 
3582.000000	97.197397 
3581.000000	97.168089 
3580.000000	97.136818 
3579.000000	97.104569 
3578.000000	97.071871 
3577.000000	97.037954 
3576.000000	97.002561 
3575.000000	96.966859 
3574.000000	96.932977 
3573.000000	96.902000 
3572.000000	96.873730 
3571.000000	96.846363 
3570.000000	96.817324 
3569.000000	96.784450 
3568.000000	96.747974 
3567.000000	96.710671 
3566.000000	96.675410 
3565.000000	96.641977 
3564.000000	96.608098 
3563.000000	96.572108 
3562.000000	96.534235 
3561.000000	96.495995 
3560.000000	96.459079 
3559.000000	96.423943 
3558.000000	96.389520 
3557.000000	96.354205 
3556.000000	96.317345 
3555.000000	96.279676 
3554.000000	96.242810 
3553.000000	96.208267 
3552.000000	96.176402 
3551.000000	96.145465 
3550.000000	96.112312 
3549.000000	96.075101 
3548.000000	96.035321 
3547.000000	95.996541 
3546.000000	95.960845 
3545.000000	95.926897 
3544.000000	95.892053 
3543.000000	95.855396 
3542.000000	95.817869 
3541.000000	95.780917 
3540.000000	95.745527 
3539.000000	95.711547 
3538.000000	95.677586 
3537.000000	95.642304 
3536.000000	95.606121 
3535.000000	95.570781 
3534.000000	95.537139 
3533.000000	95.504540 
3532.000000	95.472335 
3531.000000	95.440464 
3530.000000	95.408200 
3529.000000	95.373868 
3528.000000	95.336927 
3527.000000	95.299262 
3526.000000	95.263278 
3525.000000	95.229434 
3524.000000	95.196461 
3523.000000	95.162965 
3522.000000	95.127980 
3521.000000	95.090883 
3520.000000	95.052054 
3519.000000	95.013240 
3518.000000	94.976378 
3517.000000	94.942097 
3516.000000	94.909778 
3515.000000	94.878665 
3514.000000	94.848154 
3513.000000	94.817293 
3512.000000	94.785018 
3511.000000	94.751069 
3510.000000	94.716338 
3509.000000	94.682147 
3508.000000	94.649024 
3507.000000	94.616077 
3506.000000	94.581932 
3505.000000	94.546575 
3504.000000	94.512130 
3503.000000	94.480995 
3502.000000	94.452831 
3501.000000	94.424403 
3500.000000	94.392759 
3499.000000	94.357705 
3498.000000	94.321412 
3497.000000	94.286603 
3496.000000	94.255090 
3495.000000	94.226918 
3494.000000	94.200104 
3493.000000	94.171827 
3492.000000	94.140556 
3491.000000	94.106979 
3490.000000	94.072931 
3489.000000	94.039814 
3488.000000	94.007973 
3487.000000	93.977037 
3486.000000	93.946464 
3485.000000	93.915918 
3484.000000	93.885345 
3483.000000	93.854607 
3482.000000	93.823320 
3481.000000	93.791558 
3480.000000	93.760411 
3479.000000	93.730969 
3478.000000	93.702845 
3477.000000	93.674586 
3476.000000	93.645521 
3475.000000	93.616488 
3474.000000	93.588527 
3473.000000	93.561400 
3472.000000	93.533682 
3471.000000	93.503864 
3470.000000	93.471321 
3469.000000	93.437017 
3468.000000	93.403423 
3467.000000	93.372911 
3466.000000	93.345746 
3465.000000	93.319921 
3464.000000	93.293165 
3463.000000	93.264844 
3462.000000	93.235941 
3461.000000	93.207699 
3460.000000	93.180418 
3459.000000	93.153163 
3458.000000	93.124602 
3457.000000	93.094378 
3456.000000	93.063502 
3455.000000	93.033216 
3454.000000	93.004003 
3453.000000	92.976137 
3452.000000	92.950333 
3451.000000	92.926741 
3450.000000	92.903868 
3449.000000	92.879768 
3448.000000	92.854205 
3447.000000	92.828461 
3446.000000	92.802887 
3445.000000	92.776091 
3444.000000	92.746966 
3443.000000	92.716266 
3442.000000	92.685701 
3441.000000	92.656413 
3440.000000	92.628831 
3439.000000	92.603122 
3438.000000	92.578953 
3437.000000	92.555327 
3436.000000	92.531462 
3435.000000	92.507624 
3434.000000	92.484578 
3433.000000	92.462305 
3432.000000	92.439684 
3431.000000	92.415583 
3430.000000	92.390307 
3429.000000	92.365869 
3428.000000	92.344337 
3427.000000	92.325494 
3426.000000	92.306260 
3425.000000	92.282895 
3424.000000	92.254112 
3423.000000	92.222357 
3422.000000	92.192320 
3421.000000	92.167994 
3420.000000	92.150093 
3419.000000	92.135471 
3418.000000	92.119271 
3417.000000	92.098425 
3416.000000	92.073460 
3415.000000	92.047300 
3414.000000	92.022837 
3413.000000	92.001467 
3412.000000	91.982811 
3411.000000	91.965122 
3410.000000	91.946589 
3409.000000	91.927002 
3408.000000	91.907799 
3407.000000	91.890051 
3406.000000	91.873008 
3405.000000	91.855126 
3404.000000	91.835805 
3403.000000	91.815566 
3402.000000	91.795342 
3401.000000	91.776421 
3400.000000	91.760104 
3399.000000	91.746212 
3398.000000	91.732600 
3397.000000	91.717459 
3396.000000	91.701548 
3395.000000	91.686764 
3394.000000	91.673127 
3393.000000	91.658982 
3392.000000	91.643891 
3391.000000	91.629322 
3390.000000	91.616247 
3389.000000	91.603764 
3388.000000	91.590611 
3387.000000	91.576654 
3386.000000	91.562335 
3385.000000	91.547840 
3384.000000	91.533453 
3383.000000	91.519731 
3382.000000	91.506653 
3381.000000	91.493339 
3380.000000	91.479089 
3379.000000	91.464184 
3378.000000	91.449509 
3377.000000	91.436096 
3376.000000	91.425064 
3375.000000	91.416764 
3374.000000	91.409474 
3373.000000	91.399973 
3372.000000	91.386429 
3371.000000	91.370448 
3370.000000	91.355760 
3369.000000	91.345038 
3368.000000	91.338097 
3367.000000	91.332581 
3366.000000	91.325910 
3365.000000	91.316972 
3364.000000	91.306507 
3363.000000	91.295999 
3362.000000	91.286260 
3361.000000	91.277142 
3360.000000	91.268241 
3359.000000	91.259313 
3358.000000	91.250085 
3357.000000	91.240253 
3356.000000	91.229902 
3355.000000	91.219754 
3354.000000	91.210907 
3353.000000	91.204174 
3352.000000	91.199232 
3351.000000	91.194306 
3350.000000	91.187430 
3349.000000	91.178456 
3348.000000	91.169271 
3347.000000	91.161670 
3346.000000	91.155797 
3345.000000	91.151036 
3344.000000	91.147180 
3343.000000	91.143787 
3342.000000	91.139602 
3341.000000	91.134131 
3340.000000	91.129040 
3339.000000	91.126328 
3338.000000	91.125451 
3337.000000	91.123914 
3336.000000	91.120485 
3335.000000	91.116154 
3334.000000	91.112165 
3333.000000	91.109128 
3332.000000	91.108156 
3331.000000	91.110648 
3330.000000	91.116099 
3329.000000	91.121834 
3328.000000	91.125989 
3327.000000	91.129570 
3326.000000	91.134567 
3325.000000	91.141138 
3324.000000	91.147805 
3323.000000	91.153410 
3322.000000	91.157574 
3321.000000	91.160027 
3320.000000	91.161082 
3319.000000	91.162612 
3318.000000	91.167166 
3317.000000	91.175618 
3316.000000	91.186212 
3315.000000	91.196148 
3314.000000	91.203813 
3313.000000	91.209557 
3312.000000	91.214747 
3311.000000	91.220304 
3310.000000	91.225920 
3309.000000	91.230324 
3308.000000	91.232184 
3307.000000	91.230987 
3306.000000	91.227546 
3305.000000	91.223864 
3304.000000	91.222136 
3303.000000	91.223374 
3302.000000	91.227028 
3301.000000	91.232125 
3300.000000	91.238427 
3299.000000	91.246158 
3298.000000	91.255056 
3297.000000	91.264219 
3296.000000	91.272576 
3295.000000	91.279031 
3294.000000	91.282573 
3293.000000	91.283106 
3292.000000	91.282188 
3291.000000	91.282360 
3290.000000	91.285648 
3289.000000	91.292677 
3288.000000	91.302362 
3287.000000	91.311905 
3286.000000	91.318223 
3285.000000	91.320927 
3284.000000	91.323493 
3283.000000	91.330013 
3282.000000	91.340815 
3281.000000	91.352558 
3280.000000	91.362448 
3279.000000	91.370699 
3278.000000	91.378811 
3277.000000	91.387442 
3276.000000	91.396815 
3275.000000	91.407544 
3274.000000	91.419679 
3273.000000	91.431920 
3272.000000	91.443131 
3271.000000	91.454064 
3270.000000	91.466453 
3269.000000	91.480825 
3268.000000	91.496206 
3267.000000	91.511667 
3266.000000	91.527206 
3265.000000	91.543150 
3264.000000	91.559525 
3263.000000	91.576136 
3262.000000	91.592687 
3261.000000	91.608819 
3260.000000	91.624615 
3259.000000	91.641045 
3258.000000	91.659199 
3257.000000	91.678869 
3256.000000	91.698377 
3255.000000	91.716213 
3254.000000	91.732525 
3253.000000	91.748650 
3252.000000	91.765477 
3251.000000	91.782887 
3250.000000	91.800717 
3249.000000	91.819466 
3248.000000	91.839426 
3247.000000	91.859478 
3246.000000	91.877632 
3245.000000	91.893075 
3244.000000	91.907194 
3243.000000	91.922147 
3242.000000	91.938733 
3241.000000	91.956166 
3240.000000	91.973653 
3239.000000	91.991575 
3238.000000	92.010983 
3237.000000	92.032308 
3236.000000	92.054875 
3235.000000	92.077656 
3234.000000	92.100219 
3233.000000	92.122526 
3232.000000	92.143671 
3231.000000	92.161532 
3230.000000	92.174650 
3229.000000	92.184568 
3228.000000	92.195487 
3227.000000	92.211111 
3226.000000	92.232022 
3225.000000	92.255902 
3224.000000	92.279339 
3223.000000	92.299441 
3222.000000	92.315344 
3221.000000	92.329415 
3220.000000	92.346176 
3219.000000	92.368640 
3218.000000	92.395673 
3217.000000	92.423378 
3216.000000	92.448334 
3215.000000	92.468911 
3214.000000	92.484983 
3213.000000	92.498328 
3212.000000	92.512809 
3211.000000	92.532035 
3210.000000	92.556120 
3209.000000	92.581684 
3208.000000	92.605333 
3207.000000	92.626261 
3206.000000	92.645613 
3205.000000	92.664845 
3204.000000	92.685110 
3203.000000	92.706594 
3202.000000	92.727437 
3201.000000	92.744709 
3200.000000	92.758140 
3199.000000	92.772377 
3198.000000	92.793878 
3197.000000	92.825053 
3196.000000	92.862022 
3195.000000	92.897949 
3194.000000	92.927652 
3193.000000	92.949301 
3192.000000	92.963794 
3191.000000	92.974325 
3190.000000	92.986043 
3189.000000	93.004019 
3188.000000	93.029958 
3187.000000	93.060799 
3186.000000	93.091165 
3185.000000	93.117489 
3184.000000	93.139943 
3183.000000	93.161046 
3182.000000	93.183149 
3181.000000	93.206896 
3180.000000	93.230836 
3179.000000	93.252209 
3178.000000	93.269121 
3177.000000	93.282706 
3176.000000	93.296698 
3175.000000	93.314600 
3174.000000	93.337731 
3173.000000	93.365738 
3172.000000	93.397472 
3171.000000	93.430463 
3170.000000	93.460786 
3169.000000	93.485314 
3168.000000	93.504409 
3167.000000	93.521698 
3166.000000	93.541191 
3165.000000	93.564995 
3164.000000	93.593114 
3163.000000	93.624061 
3162.000000	93.655367 
3161.000000	93.684419 
3160.000000	93.709824 
3159.000000	93.732429 
3158.000000	93.755072 
3157.000000	93.780649 
3156.000000	93.809365 
3155.000000	93.837907 
3154.000000	93.862690 
3153.000000	93.884329 
3152.000000	93.907286 
3151.000000	93.934205 
3150.000000	93.962290 
3149.000000	93.986921 
3148.000000	94.007612 
3147.000000	94.028103 
3146.000000	94.051026 
3145.000000	94.075125 
3144.000000	94.098168 
3143.000000	94.120540 
3142.000000	94.144909 
3141.000000	94.173179 
3140.000000	94.204184 
3139.000000	94.233731 
3138.000000	94.257081 
3137.000000	94.272802 
3136.000000	94.284593 
3135.000000	94.298361 
3134.000000	94.317379 
3133.000000	94.340874 
3132.000000	94.366437 
3131.000000	94.392060 
3130.000000	94.415994 
3129.000000	94.437032 
3128.000000	94.456112 
3127.000000	94.476075 
3126.000000	94.498585 
3125.000000	94.522262 
3124.000000	94.544540 
3123.000000	94.564357 
3122.000000	94.582478 
3121.000000	94.600199 
3120.000000	94.618563 
3119.000000	94.637990 
3118.000000	94.658038 
3117.000000	94.678298 
3116.000000	94.699631 
3115.000000	94.723211 
3114.000000	94.747957 
3113.000000	94.770522 
3112.000000	94.788814 
3111.000000	94.804180 
3110.000000	94.819212 
3109.000000	94.834993 
3108.000000	94.851611 
3107.000000	94.869950 
3106.000000	94.891097 
3105.000000	94.914558 
3104.000000	94.938657 
3103.000000	94.962234 
3102.000000	94.984780 
3101.000000	95.005580 
3100.000000	95.024163 
3099.000000	95.041332 
3098.000000	95.058385 
3097.000000	95.075497 
3096.000000	95.092040 
3095.000000	95.108123 
3094.000000	95.124697 
3093.000000	95.142277 
3092.000000	95.160640 
3091.000000	95.179516 
3090.000000	95.198282 
3089.000000	95.215269 
3088.000000	95.228825 
3087.000000	95.239505 
3086.000000	95.250211 
3085.000000	95.263711 
3084.000000	95.280584 
3083.000000	95.299467 
3082.000000	95.318310 
3081.000000	95.335358 
3080.000000	95.350128 
3079.000000	95.364063 
3078.000000	95.379596 
3077.000000	95.398092 
3076.000000	95.418911 
3075.000000	95.440403 
3074.000000	95.461138 
3073.000000	95.480124 
3072.000000	95.496886 
3071.000000	95.511947 
3070.000000	95.526808 
3069.000000	95.542818 
3068.000000	95.560024 
3067.000000	95.577341 
3066.000000	95.593796 
3065.000000	95.609575 
3064.000000	95.625899 
3063.000000	95.643747 
3062.000000	95.662678 
3061.000000	95.681186 
3060.000000	95.698365 
3059.000000	95.714900 
3058.000000	95.732081 
3057.000000	95.750213 
3056.000000	95.768576 
3055.000000	95.786573 
3054.000000	95.804241 
3053.000000	95.821813 
3052.000000	95.839538 
3051.000000	95.857896 
3050.000000	95.877227 
3049.000000	95.896913 
3048.000000	95.915479 
3047.000000	95.931678 
3046.000000	95.945233 
3045.000000	95.956769 
3044.000000	95.967676 
3043.000000	95.979867 
3042.000000	95.994548 
3041.000000	96.010894 
3040.000000	96.026641 
3039.000000	96.040515 
3038.000000	96.053617 
3037.000000	96.067859 
3036.000000	96.083622 
3035.000000	96.099398 
3034.000000	96.113474 
3033.000000	96.125408 
3032.000000	96.135998 
3031.000000	96.146436 
3030.000000	96.157553 
3029.000000	96.169491 
3028.000000	96.181882 
3027.000000	96.194333 
3026.000000	96.206642 
3025.000000	96.218401 
3024.000000	96.228542 
3023.000000	96.235775 
3022.000000	96.239720 
3021.000000	96.241529 
3020.000000	96.243156 
3019.000000	96.245961 
3018.000000	96.249978 
3017.000000	96.254322 
3016.000000	96.258118 
3015.000000	96.261099 
3014.000000	96.263588 
3013.000000	96.266089 
3012.000000	96.268677 
3011.000000	96.270656 
3010.000000	96.271086 
3009.000000	96.270006 
3008.000000	96.269088 
3007.000000	96.270529 
3006.000000	96.275075 
3005.000000	96.281318 
3004.000000	96.287108 
3003.000000	96.291584 
3002.000000	96.295705 
3001.000000	96.301196 
3000.000000	96.309077 
2999.000000	96.318810 
2998.000000	96.328287 
2997.000000	96.334670 
2996.000000	96.336049 
2995.000000	96.332817 
2994.000000	96.327581 
2993.000000	96.323451 
2992.000000	96.321950 
2991.000000	96.322090 
2990.000000	96.321089 
2989.000000	96.316071 
2988.000000	96.305790 
2987.000000	96.291189 
2986.000000	96.274481 
2985.000000	96.257266 
2984.000000	96.239385 
2983.000000	96.219570 
2982.000000	96.197194 
2981.000000	96.173150 
2980.000000	96.148657 
2979.000000	96.123448 
2978.000000	96.095748 
2977.000000	96.064392 
2976.000000	96.030449 
2975.000000	95.996263 
2974.000000	95.962901 
2973.000000	95.929037 
2972.000000	95.892353 
2971.000000	95.851683 
2970.000000	95.807444 
2969.000000	95.760275 
2968.000000	95.709884 
2967.000000	95.655768 
2966.000000	95.599019 
2965.000000	95.542690 
2964.000000	95.489596 
2963.000000	95.439752 
2962.000000	95.390754 
2961.000000	95.340919 
2960.000000	95.291464 
2959.000000	95.245047 
2958.000000	95.202805 
2957.000000	95.163621 
2956.000000	95.126178 
2955.000000	95.090725 
2954.000000	95.058269 
2953.000000	95.028333 
2952.000000	94.998062 
2951.000000	94.963724 
2950.000000	94.923235 
2949.000000	94.877185 
2948.000000	94.827432 
2947.000000	94.774600 
2946.000000	94.717115 
2945.000000	94.652563 
2944.000000	94.579852 
2943.000000	94.500091 
2942.000000	94.415904 
2941.000000	94.329912 
2940.000000	94.243274 
2939.000000	94.155216 
2938.000000	94.064309 
2937.000000	93.970639 
2936.000000	93.876339 
2935.000000	93.783669 
2934.000000	93.693101 
2933.000000	93.604120 
2932.000000	93.517573 
2931.000000	93.436072 
2930.000000	93.362014 
2929.000000	93.295872 
2928.000000	93.237061 
2927.000000	93.186006 
2926.000000	93.144830 
2925.000000	93.116093 
2924.000000	93.101453 
2923.000000	93.101711 
2922.000000	93.117756 
2921.000000	93.150829 
2920.000000	93.201523 
2919.000000	93.268778 
2918.000000	93.349969 
2917.000000	93.441863 
2916.000000	93.540979 
2915.000000	93.643189 
2914.000000	93.743718 
2913.000000	93.838231 
2912.000000	93.924050 
2911.000000	94.000333 
2910.000000	94.067563 
2909.000000	94.127098 
2908.000000	94.180847 
2907.000000	94.230615 
2906.000000	94.277458 
2905.000000	94.321899 
2904.000000	94.364420 
2903.000000	94.405222 
2902.000000	94.443694 
2901.000000	94.478790 
2900.000000	94.510301 
2899.000000	94.539447 
2898.000000	94.567960 
2897.000000	94.596830 
2896.000000	94.625942 
2895.000000	94.654800 
2894.000000	94.683514 
2893.000000	94.713103 
2892.000000	94.744541 
2891.000000	94.777363 
2890.000000	94.809472 
2889.000000	94.838575 
2888.000000	94.863655 
2887.000000	94.885074 
2886.000000	94.904009 
2885.000000	94.922056 
2884.000000	94.940333 
2883.000000	94.958025 
2882.000000	94.972515 
2881.000000	94.982117 
2880.000000	94.988236 
2879.000000	94.993430 
2878.000000	94.997940 
2877.000000	94.999754 
2876.000000	94.998123 
2875.000000	94.995312 
2874.000000	94.994118 
2873.000000	94.995405 
2872.000000	94.999011 
2871.000000	95.005521 
2870.000000	95.015637 
2869.000000	95.028188 
2868.000000	95.039907 
2867.000000	95.047065 
2866.000000	95.046631 
2865.000000	95.036772 
2864.000000	95.017335 
2863.000000	94.989584 
2862.000000	94.954469 
2861.000000	94.911591 
2860.000000	94.860891 
2859.000000	94.805239 
2858.000000	94.750496 
2857.000000	94.702724 
2856.000000	94.666272 
2855.000000	94.644443 
2854.000000	94.641191 
2853.000000	94.661603 
2852.000000	94.710532 
2851.000000	94.790296 
2850.000000	94.898760 
2849.000000	95.028996 
2848.000000	95.171413 
2847.000000	95.316650 
2846.000000	95.457717 
2845.000000	95.590549 
2844.000000	95.713624 
2843.000000	95.826805 
2842.000000	95.929954 
2841.000000	96.022519 
2840.000000	96.104611 
2839.000000	96.177835 
2838.000000	96.244356 
2837.000000	96.305389 
2836.000000	96.361297 
2835.000000	96.412797 
2834.000000	96.461108 
2833.000000	96.506834 
2832.000000	96.549630 
2831.000000	96.589327 
2830.000000	96.626899 
2829.000000	96.663863 
2828.000000	96.700944 
2827.000000	96.737681 
2826.000000	96.773187 
2825.000000	96.806935 
2824.000000	96.838833 
2823.000000	96.868770 
2822.000000	96.896418 
2821.000000	96.921604 
2820.000000	96.944700 
2819.000000	96.966387 
2818.000000	96.987199 
2817.000000	97.007545 
2816.000000	97.027988 
2815.000000	97.048902 
2814.000000	97.069716 
2813.000000	97.089146 
2812.000000	97.106464 
2811.000000	97.122271 
2810.000000	97.137734 
2809.000000	97.153434 
2808.000000	97.169316 
2807.000000	97.185316 
2806.000000	97.201530 
2805.000000	97.217931 
2804.000000	97.234338 
2803.000000	97.250580 
2802.000000	97.266349 
2801.000000	97.281046 
2800.000000	97.294189 
2799.000000	97.306046 
2798.000000	97.317576 
2797.000000	97.329513 
2796.000000	97.341597 
2795.000000	97.352773 
2794.000000	97.362333 
2793.000000	97.370953 
2792.000000	97.380357 
2791.000000	97.391670 
2790.000000	97.404158 
2789.000000	97.415963 
2788.000000	97.426132 
2787.000000	97.435475 
2786.000000	97.445285 
2785.000000	97.455676 
2784.000000	97.465535 
2783.000000	97.473874 
2782.000000	97.480763 
2781.000000	97.487050 
2780.000000	97.493465 
2779.000000	97.500168 
2778.000000	97.507112 
2777.000000	97.514573 
2776.000000	97.523025 
2775.000000	97.532390 
2774.000000	97.541742 
2773.000000	97.550071 
2772.000000	97.557116 
2771.000000	97.563164 
2770.000000	97.568323 
2769.000000	97.572520 
2768.000000	97.576159 
2767.000000	97.580227 
2766.000000	97.585535 
2765.000000	97.592186 
2764.000000	97.599750 
2763.000000	97.607557 
2762.000000	97.614797 
2761.000000	97.620823 
2760.000000	97.625664 
2759.000000	97.630074 
2758.000000	97.634864 
2757.000000	97.640238 
2756.000000	97.645692 
2755.000000	97.650369 
2754.000000	97.653703 
2753.000000	97.656054 
2752.000000	97.658668 
2751.000000	97.662637 
2750.000000	97.667870 
2749.000000	97.673267 
2748.000000	97.677760 
2747.000000	97.681103 
2746.000000	97.683905 
2745.000000	97.687235 
2744.000000	97.691938 
2743.000000	97.697886 
2742.000000	97.703990 
2741.000000	97.709134 
2740.000000	97.712969 
2739.000000	97.715701 
2738.000000	97.717685 
2737.000000	97.719635 
2736.000000	97.722580 
2735.000000	97.726820 
2734.000000	97.731294 
2733.000000	97.734737 
2732.000000	97.737146 
2731.000000	97.739465 
2730.000000	97.742298 
2729.000000	97.745897 
2728.000000	97.750898 
2727.000000	97.757781 
2726.000000	97.765627 
2725.000000	97.772583 
2724.000000	97.777761 
2723.000000	97.781790 
2722.000000	97.785450 
2721.000000	97.788770 
2720.000000	97.791686 
2719.000000	97.794581 
2718.000000	97.797770 
2717.000000	97.801226 
2716.000000	97.805005 
2715.000000	97.809123 
2714.000000	97.812901 
2713.000000	97.815468 
2712.000000	97.817322 
2711.000000	97.820327 
2710.000000	97.825511 
2709.000000	97.831710 
2708.000000	97.837077 
2707.000000	97.841252 
2706.000000	97.845270 
2705.000000	97.849789 
2704.000000	97.854253 
2703.000000	97.857679 
2702.000000	97.859827 
2701.000000	97.861608 
2700.000000	97.864502 
2699.000000	97.869230 
2698.000000	97.874872 
2697.000000	97.879689 
2696.000000	97.883021 
2695.000000	97.886010 
2694.000000	97.890229 
2693.000000	97.896062 
2692.000000	97.902584 
2691.000000	97.908591 
2690.000000	97.913411 
2689.000000	97.917061 
2688.000000	97.920043 
2687.000000	97.922953 
2686.000000	97.926286 
2685.000000	97.930570 
2684.000000	97.936303 
2683.000000	97.943216 
2682.000000	97.949898 
2681.000000	97.954836 
2680.000000	97.957801 
2679.000000	97.959670 
2678.000000	97.961149 
2677.000000	97.962567 
2676.000000	97.964691 
2675.000000	97.968522 
2674.000000	97.973876 
2673.000000	97.979257 
2672.000000	97.983661 
2671.000000	97.987712 
2670.000000	97.992398 
2669.000000	97.997361 
2668.000000	98.001233 
2667.000000	98.003252 
2666.000000	98.003842 
2665.000000	98.003713 
2664.000000	98.002942 
2663.000000	98.001007 
2662.000000	97.997483 
2661.000000	97.992639 
2660.000000	97.987258 
2659.000000	97.981845 
2658.000000	97.976331 
2657.000000	97.970984 
2656.000000	97.967227 
2655.000000	97.966716 
2654.000000	97.969523 
2653.000000	97.973887 
2652.000000	97.977929 
2651.000000	97.981017 
2650.000000	97.983381 
2649.000000	97.985239 
2648.000000	97.986687 
2647.000000	97.987928 
2646.000000	97.989107 
2645.000000	97.990272 
2644.000000	97.991775 
2643.000000	97.994358 
2642.000000	97.998551 
2641.000000	98.004122 
2640.000000	98.010164 
2639.000000	98.015467 
2638.000000	98.018969 
2637.000000	98.020420 
2636.000000	98.020825 
2635.000000	98.021870 
2634.000000	98.024809 
2633.000000	98.030017 
2632.000000	98.037166 
2631.000000	98.045243 
2630.000000	98.052616 
2629.000000	98.057906 
2628.000000	98.061059 
2627.000000	98.063210 
2626.000000	98.065657 
2625.000000	98.069318 
2624.000000	98.074673 
2623.000000	98.081383 
2622.000000	98.088118 
2621.000000	98.093623 
2620.000000	98.097955 
2619.000000	98.102118 
2618.000000	98.106798 
2617.000000	98.112042 
2616.000000	98.117660 
2615.000000	98.122967 
2614.000000	98.126619 
2613.000000	98.128075 
2612.000000	98.129116 
2611.000000	98.132634 
2610.000000	98.139593 
2609.000000	98.148030 
2608.000000	98.155242 
2607.000000	98.160308 
2606.000000	98.164613 
2605.000000	98.170537 
2604.000000	98.179256 
2603.000000	98.189210 
2602.000000	98.197277 
2601.000000	98.202297 
2600.000000	98.206599 
2599.000000	98.212900 
2598.000000	98.220652 
2597.000000	98.227055 
2596.000000	98.230883 
2595.000000	98.233342 
2594.000000	98.235674 
2593.000000	98.238148 
2592.000000	98.241355 
2591.000000	98.246326 
2590.000000	98.252892 
2589.000000	98.259547 
2588.000000	98.265260 
2587.000000	98.270111 
2586.000000	98.274242 
2585.000000	98.277764 
2584.000000	98.281602 
2583.000000	98.286661 
2582.000000	98.292195 
2581.000000	98.296821 
2580.000000	98.301045 
2579.000000	98.306760 
2578.000000	98.313998 
2577.000000	98.320214 
2576.000000	98.323420 
2575.000000	98.324378 
2574.000000	98.325307 
2573.000000	98.327897 
2572.000000	98.332650 
2571.000000	98.338548 
2570.000000	98.343324 
2569.000000	98.345860 
2568.000000	98.348386 
2567.000000	98.354368 
2566.000000	98.364043 
2565.000000	98.374053 
2564.000000	98.381578 
2563.000000	98.386707 
2562.000000	98.390626 
2561.000000	98.393874 
2560.000000	98.397003 
2559.000000	98.400729 
2558.000000	98.404629 
2557.000000	98.407622 
2556.000000	98.410297 
2555.000000	98.414623 
2554.000000	98.420734 
2553.000000	98.426302 
2552.000000	98.430033 
2551.000000	98.433618 
2550.000000	98.439038 
2549.000000	98.445747 
2548.000000	98.451895 
2547.000000	98.456899 
2546.000000	98.461546 
2545.000000	98.466540 
2544.000000	98.471675 
2543.000000	98.475629 
2542.000000	98.476608 
2541.000000	98.474642 
2540.000000	98.473195 
2539.000000	98.476539 
2538.000000	98.485105 
2537.000000	98.495003 
2536.000000	98.502267 
2535.000000	98.505931 
2534.000000	98.507137 
2533.000000	98.507757 
2532.000000	98.510253 
2531.000000	98.516269 
2530.000000	98.524346 
2529.000000	98.531005 
2528.000000	98.534775 
2527.000000	98.537235 
2526.000000	98.539729 
2525.000000	98.541621 
2524.000000	98.542566 
2523.000000	98.543935 
2522.000000	98.546713 
2521.000000	98.550083 
2520.000000	98.553258 
2519.000000	98.556776 
2518.000000	98.560872 
2517.000000	98.564504 
2516.000000	98.567210 
2515.000000	98.570232 
2514.000000	98.574770 
2513.000000	98.580690 
2512.000000	98.587646 
2511.000000	98.595577 
2510.000000	98.603257 
2509.000000	98.608394 
2508.000000	98.610355 
2507.000000	98.611150 
2506.000000	98.612892 
2505.000000	98.615989 
2504.000000	98.620273 
2503.000000	98.625544 
2502.000000	98.630110 
2501.000000	98.631421 
2500.000000	98.629721 
2499.000000	98.628871 
2498.000000	98.631737 
2497.000000	98.636645 
2496.000000	98.640251 
2495.000000	98.642278 
2494.000000	98.645405 
2493.000000	98.651532 
2492.000000	98.660003 
2491.000000	98.668875 
2490.000000	98.676480 
2489.000000	98.682121 
2488.000000	98.686145 
2487.000000	98.689120 
2486.000000	98.690854 
2485.000000	98.691167 
2484.000000	98.691534 
2483.000000	98.694397 
2482.000000	98.700452 
2481.000000	98.708057 
2480.000000	98.715578 
2479.000000	98.722641 
2478.000000	98.728698 
2477.000000	98.732340 
2476.000000	98.733027 
2475.000000	98.732064 
2474.000000	98.731088 
2473.000000	98.730747 
2472.000000	98.731254 
2471.000000	98.732843 
2470.000000	98.735278 
2469.000000	98.738163 
2468.000000	98.741877 
2467.000000	98.746892 
2466.000000	98.752489 
2465.000000	98.757810 
2464.000000	98.763636 
2463.000000	98.770737 
2462.000000	98.776783 
2461.000000	98.777877 
2460.000000	98.773671 
2459.000000	98.768252 
2458.000000	98.765351 
2457.000000	98.765246 
2456.000000	98.766847 
2455.000000	98.769713 
2454.000000	98.772931 
2453.000000	98.775049 
2452.000000	98.776777 
2451.000000	98.781171 
2450.000000	98.789388 
2449.000000	98.798550 
2448.000000	98.805623 
2447.000000	98.811257 
2446.000000	98.817779 
2445.000000	98.825193 
2444.000000	98.831295 
2443.000000	98.834700 
2442.000000	98.836222 
2441.000000	98.838196 
2440.000000	98.843204 
2439.000000	98.852023 
2438.000000	98.862008 
2437.000000	98.869031 
2436.000000	98.871789 
2435.000000	98.872764 
2434.000000	98.874714 
2433.000000	98.878375 
2432.000000	98.883911 
2431.000000	98.891622 
2430.000000	98.899977 
2429.000000	98.905693 
2428.000000	98.907608 
2427.000000	98.908419 
2426.000000	98.911003 
2425.000000	98.915159 
2424.000000	98.919529 
2423.000000	98.924351 
2422.000000	98.930176 
2421.000000	98.935869 
2420.000000	98.940347 
2419.000000	98.944820 
2418.000000	98.950928 
2417.000000	98.957722 
2416.000000	98.962838 
2415.000000	98.966042 
2414.000000	98.969540 
2413.000000	98.974844 
2412.000000	98.980857 
2411.000000	98.985396 
2410.000000	98.987990 
2409.000000	98.991119 
2408.000000	98.998486 
2407.000000	99.011213 
2406.000000	99.025713 
2405.000000	99.036419 
2404.000000	99.040805 
2403.000000	99.040794 
2402.000000	99.039790 
2401.000000	99.040105 
2400.000000	99.042807 
2399.000000	99.047491 
2398.000000	99.051683 
2397.000000	99.052846 
2396.000000	99.051949 
2395.000000	99.053023 
2394.000000	99.058214 
2393.000000	99.065159 
2392.000000	99.070373 
2391.000000	99.073279 
2390.000000	99.075440 
2389.000000	99.077568 
2388.000000	99.078742 
2387.000000	99.077516 
2386.000000	99.072815 
2385.000000	99.065174 
2384.000000	99.058364 
2383.000000	99.058492 
2382.000000	99.069571 
2381.000000	99.090062 
2380.000000	99.114673 
2379.000000	99.138955 
2378.000000	99.161557 
2377.000000	99.182667 
2376.000000	99.200478 
2375.000000	99.210409 
2374.000000	99.206959 
2373.000000	99.188800 
2372.000000	99.162807 
2371.000000	99.140089 
2370.000000	99.128073 
2369.000000	99.126682 
2368.000000	99.129485 
2367.000000	99.127089 
2366.000000	99.115270 
2365.000000	99.101872 
2364.000000	99.096174 
2363.000000	99.096026 
2362.000000	99.095724 
2361.000000	99.090840 
2360.000000	99.086914 
2359.000000	99.092417 
2358.000000	99.100329 
2357.000000	99.111754 
2356.000000	99.134099 
2355.000000	99.169843 
2354.000000	99.213809 
2353.000000	99.249132 
2352.000000	99.253626 
2351.000000	99.194158 
2350.000000	99.080976 
2349.000000	98.977479 
2348.000000	98.941896 
2347.000000	98.990025 
2346.000000	99.070416 
2345.000000	99.123926 
2344.000000	99.125253 
2343.000000	99.098209 
2342.000000	99.085258 
2341.000000	99.085113 
2340.000000	99.086799 
2339.000000	99.079593 
2338.000000	99.069232 
2337.000000	99.061656 
2336.000000	99.059859 
2335.000000	99.062657 
2334.000000	99.072241 
2333.000000	99.090833 
2332.000000	99.119949 
2331.000000	99.146769 
2330.000000	99.156570 
2329.000000	99.144540 
2328.000000	99.103853 
2327.000000	99.048968 
2326.000000	98.982389 
2325.000000	98.924180 
2324.000000	98.887178 
2323.000000	98.883982 
2322.000000	98.915019 
2321.000000	98.958452 
2320.000000	98.997823 
2319.000000	99.020987 
2318.000000	99.032598 
2317.000000	99.035133 
2316.000000	99.033647 
2315.000000	99.033058 
2314.000000	99.036088 
2313.000000	99.044687 
2312.000000	99.055112 
2311.000000	99.066919 
2310.000000	99.074302 
2309.000000	99.076815 
2308.000000	99.072074 
2307.000000	99.065104 
2306.000000	99.056766 
2305.000000	99.049323 
2304.000000	99.042053 
2303.000000	99.036690 
2302.000000	99.032831 
2301.000000	99.030123 
2300.000000	99.026810 
2299.000000	99.023054 
2298.000000	99.015673 
2297.000000	99.003682 
2296.000000	98.987883 
2295.000000	98.975289 
2294.000000	98.967866 
2293.000000	98.963998 
2292.000000	98.958125 
2291.000000	98.949197 
2290.000000	98.937482 
2289.000000	98.924123 
2288.000000	98.909578 
2287.000000	98.895706 
2286.000000	98.885186 
2285.000000	98.880614 
2284.000000	98.883981 
2283.000000	98.894931 
2282.000000	98.910556 
2281.000000	98.926768 
2280.000000	98.942023 
2279.000000	98.955638 
2278.000000	98.966113 
2277.000000	98.972351 
2276.000000	98.977626 
2275.000000	98.985450 
2274.000000	98.992927 
2273.000000	98.993715 
2272.000000	98.987904 
2271.000000	98.984042 
2270.000000	98.988118 
2269.000000	98.997234 
2268.000000	99.005727 
2267.000000	99.012916 
2266.000000	99.021291 
2265.000000	99.031080 
2264.000000	99.039745 
2263.000000	99.044755 
2262.000000	99.043709 
2261.000000	99.036090 
2260.000000	99.025077 
2259.000000	99.015318 
2258.000000	99.008561 
2257.000000	99.004476 
2256.000000	99.006647 
2255.000000	99.019842 
2254.000000	99.041531 
2253.000000	99.060964 
2252.000000	99.070416 
2251.000000	99.071775 
2250.000000	99.069905 
2249.000000	99.066286 
2248.000000	99.061320 
2247.000000	99.057901 
2246.000000	99.057536 
2245.000000	99.057527 
2244.000000	99.055097 
2243.000000	99.050960 
2242.000000	99.046233 
2241.000000	99.040567 
2240.000000	99.035548 
2239.000000	99.034970 
2238.000000	99.038596 
2237.000000	99.040219 
2236.000000	99.035493 
2235.000000	99.027901 
2234.000000	99.024288 
2233.000000	99.027982 
2232.000000	99.037844 
2231.000000	99.049204 
2230.000000	99.053988 
2229.000000	99.046101 
2228.000000	99.029830 
2227.000000	99.017530 
2226.000000	99.016154 
2225.000000	99.021281 
2224.000000	99.026704 
2223.000000	99.032769 
2222.000000	99.041035 
2221.000000	99.047517 
2220.000000	99.047651 
2219.000000	99.043700 
2218.000000	99.041591 
2217.000000	99.043367 
2216.000000	99.046818 
2215.000000	99.049593 
2214.000000	99.050290 
2213.000000	99.048642 
2212.000000	99.046965 
2211.000000	99.047891 
2210.000000	99.049292 
2209.000000	99.046364 
2208.000000	99.040370 
2207.000000	99.039107 
2206.000000	99.045639 
2205.000000	99.052417 
2204.000000	99.050247 
2203.000000	99.038084 
2202.000000	99.021088 
2201.000000	99.004791 
2200.000000	98.994545 
2199.000000	98.994479 
2198.000000	99.002222 
2197.000000	99.009005 
2196.000000	99.009168 
2195.000000	99.005684 
2194.000000	99.003185 
2193.000000	99.000473 
2192.000000	98.993366 
2191.000000	98.980731 
2190.000000	98.964481 
2189.000000	98.947765 
2188.000000	98.935400 
2187.000000	98.931064 
2186.000000	98.932188 
2185.000000	98.933238 
2184.000000	98.936705 
2183.000000	98.953914 
2182.000000	98.989498 
2181.000000	99.029698 
2180.000000	99.052174 
2179.000000	99.046373 
2178.000000	99.022120 
2177.000000	99.001914 
2176.000000	99.004516 
2175.000000	99.028620 
2174.000000	99.051510 
2173.000000	99.048811 
2172.000000	99.016378 
2171.000000	98.969321 
2170.000000	98.922344 
2169.000000	98.879309 
2168.000000	98.839926 
2167.000000	98.806518 
2166.000000	98.780955 
2165.000000	98.760124 
2164.000000	98.737761 
2163.000000	98.710058 
2162.000000	98.686545 
2161.000000	98.702455 
2160.000000	98.807722 
2159.000000	99.017482 
2158.000000	99.270039 
2157.000000	99.463325 
2156.000000	99.541856 
2155.000000	99.526702 
2154.000000	99.468496 
2153.000000	99.402936 
2152.000000	99.346185 
2151.000000	99.304262 
2150.000000	99.276893 
2149.000000	99.260853 
2148.000000	99.255802 
2147.000000	99.261783 
2146.000000	99.271608 
2145.000000	99.274853 
2144.000000	99.270171 
2143.000000	99.264493 
2142.000000	99.259815 
2141.000000	99.250685 
2140.000000	99.235770 
2139.000000	99.222269 
2138.000000	99.217697 
2137.000000	99.225879 
2136.000000	99.250662 
2135.000000	99.292545 
2134.000000	99.339097 
2133.000000	99.369016 
2132.000000	99.370696 
2131.000000	99.350262 
2130.000000	99.319804 
2129.000000	99.286124 
2128.000000	99.251805 
2127.000000	99.219037 
2126.000000	99.189143 
2125.000000	99.162837 
2124.000000	99.142224 
2123.000000	99.128272 
2122.000000	99.117039 
2121.000000	99.103775 
2120.000000	99.090034 
2119.000000	99.080284 
2118.000000	99.072290 
2117.000000	99.058520 
2116.000000	99.037493 
2115.000000	99.016038 
2114.000000	98.999165 
2113.000000	98.985635 
2112.000000	98.974949 
2111.000000	98.970379 
2110.000000	98.972054 
2109.000000	98.974508 
2108.000000	98.974762 
2107.000000	98.976219 
2106.000000	98.981187 
2105.000000	98.985848 
2104.000000	98.986190 
2103.000000	98.983251 
2102.000000	98.979645 
2101.000000	98.976620 
2100.000000	98.976771 
2099.000000	98.983775 
2098.000000	98.997597 
2097.000000	99.015524 
2096.000000	99.038269 
2095.000000	99.067065 
2094.000000	99.094041 
2093.000000	99.105454 
2092.000000	99.097741 
2091.000000	99.081675 
2090.000000	99.067521 
2089.000000	99.054753 
2088.000000	99.039654 
2087.000000	99.024192 
2086.000000	99.011836 
2085.000000	99.001222 
2084.000000	98.989542 
2083.000000	98.977331 
2082.000000	98.966163 
2081.000000	98.956736 
2080.000000	98.951945 
2079.000000	98.955814 
2078.000000	98.966122 
2077.000000	98.973998 
2076.000000	98.974388 
2075.000000	98.971270 
2074.000000	98.970028 
2073.000000	98.971255 
2072.000000	98.974262 
2071.000000	98.979517 
2070.000000	98.985264 
2069.000000	98.989101 
2068.000000	98.994111 
2067.000000	99.004914 
2066.000000	99.016545 
2065.000000	99.017742 
2064.000000	99.008104 
2063.000000	98.999958 
2062.000000	99.000133 
2061.000000	99.002632 
2060.000000	99.002181 
2059.000000	99.001571 
2058.000000	99.001226 
2057.000000	98.995987 
2056.000000	98.988075 
2055.000000	98.987332 
2054.000000	98.989557 
2053.000000	98.970968 
2052.000000	98.918999 
2051.000000	98.857181 
2050.000000	98.824795 
2049.000000	98.837411 
2048.000000	98.877283 
2047.000000	98.918194 
2046.000000	98.946602 
2045.000000	98.960737 
2044.000000	98.965780 
2043.000000	98.970792 
2042.000000	98.979614 
2041.000000	98.985447 
2040.000000	98.980915 
2039.000000	98.969257 
2038.000000	98.959404 
2037.000000	98.957327 
2036.000000	98.967782 
2035.000000	98.994633 
2034.000000	99.030931 
2033.000000	99.058265 
2032.000000	99.066889 
2031.000000	99.067771 
2030.000000	99.075668 
2029.000000	99.090470 
2028.000000	99.103743 
2027.000000	99.113386 
2026.000000	99.121873 
2025.000000	99.128852 
2024.000000	99.134860 
2023.000000	99.144106 
2022.000000	99.156186 
2021.000000	99.163431 
2020.000000	99.162674 
2019.000000	99.160535 
2018.000000	99.161667 
2017.000000	99.161957 
2016.000000	99.158653 
2015.000000	99.155984 
2014.000000	99.154737 
2013.000000	99.148038 
2012.000000	99.133894 
2011.000000	99.121709 
2010.000000	99.121620 
2009.000000	99.137229 
2008.000000	99.170624 
2007.000000	99.220669 
2006.000000	99.271875 
2005.000000	99.300245 
2004.000000	99.298055 
2003.000000	99.279776 
2002.000000	99.259827 
2001.000000	99.238851 
2000.000000	99.214913 
1999.000000	99.193073 
1998.000000	99.176701 
1997.000000	99.162118 
1996.000000	99.148565 
1995.000000	99.141644 
1994.000000	99.141204 
1993.000000	99.137326 
1992.000000	99.125398 
1991.000000	99.113916 
1990.000000	99.109172 
1989.000000	99.105054 
1988.000000	99.095583 
1987.000000	99.084319 
1986.000000	99.074641 
1985.000000	99.062760 
1984.000000	99.046438 
1983.000000	99.027585 
1982.000000	99.001120 
1981.000000	98.958694 
1980.000000	98.913717 
1979.000000	98.905465 
1978.000000	98.960310 
1977.000000	99.058371 
1976.000000	99.156215 
1975.000000	99.230864 
1974.000000	99.281870 
1973.000000	99.308828 
1972.000000	99.312492 
1971.000000	99.306510 
1970.000000	99.307383 
1969.000000	99.316977 
1968.000000	99.325791 
1967.000000	99.327677 
1966.000000	99.322916 
1965.000000	99.313944 
1964.000000	99.306697 
1963.000000	99.309844 
1962.000000	99.325760 
1961.000000	99.347437 
1960.000000	99.368436 
1959.000000	99.388080 
1958.000000	99.402920 
1957.000000	99.403972 
1956.000000	99.387934 
1955.000000	99.362371 
1954.000000	99.336207 
1953.000000	99.313453 
1952.000000	99.297952 
1951.000000	99.293614 
1950.000000	99.296620 
1949.000000	99.296892 
1948.000000	99.291760 
1947.000000	99.289966 
1946.000000	99.298458 
1945.000000	99.313921 
1944.000000	99.329834 
1943.000000	99.341840 
1942.000000	99.343749 
1941.000000	99.331157 
1940.000000	99.311853 
1939.000000	99.300617 
1938.000000	99.302583 
1937.000000	99.309172 
1936.000000	99.311286 
1935.000000	99.309185 
1934.000000	99.306317 
1933.000000	99.303047 
1932.000000	99.300492 
1931.000000	99.301521 
1930.000000	99.304903 
1929.000000	99.305580 
1928.000000	99.303886 
1927.000000	99.306492 
1926.000000	99.315351 
1925.000000	99.324473 
1924.000000	99.328932 
1923.000000	99.329363 
1922.000000	99.325545 
1921.000000	99.314760 
1920.000000	99.299363 
1919.000000	99.287489 
1918.000000	99.282662 
1917.000000	99.279038 
1916.000000	99.272940 
1915.000000	99.269382 
1914.000000	99.271913 
1913.000000	99.277057 
1912.000000	99.281418 
1911.000000	99.286273 
1910.000000	99.291672 
1909.000000	99.292981 
1908.000000	99.289039 
1907.000000	99.285557 
1906.000000	99.285909 
1905.000000	99.287184 
1904.000000	99.287521 
1903.000000	99.289845 
1902.000000	99.294861 
1901.000000	99.297704 
1900.000000	99.296516 
1899.000000	99.296138 
1898.000000	99.299107 
1897.000000	99.301474 
1896.000000	99.300783 
1895.000000	99.300742 
1894.000000	99.303734 
1893.000000	99.306563 
1892.000000	99.308011 
1891.000000	99.311877 
1890.000000	99.317947 
1889.000000	99.318530 
1888.000000	99.311615 
1887.000000	99.306033 
1886.000000	99.307032 
1885.000000	99.309054 
1884.000000	99.306218 
1883.000000	99.301209 
1882.000000	99.298754 
1881.000000	99.297134 
1880.000000	99.292939 
1879.000000	99.287751 
1878.000000	99.284319 
1877.000000	99.282331 
1876.000000	99.282109 
1875.000000	99.286509 
1874.000000	99.295523 
1873.000000	99.304503 
1872.000000	99.311111 
1871.000000	99.318054 
1870.000000	99.325551 
1869.000000	99.326165 
1868.000000	99.315779 
1867.000000	99.303552 
1866.000000	99.298433 
1865.000000	99.298043 
1864.000000	99.297862 
1863.000000	99.298520 
1862.000000	99.300464 
1861.000000	99.299940 
1860.000000	99.295431 
1859.000000	99.291183 
1858.000000	99.289625 
1857.000000	99.287242 
1856.000000	99.282394 
1855.000000	99.279464 
1854.000000	99.281003 
1853.000000	99.283140 
1852.000000	99.283628 
1851.000000	99.286958 
1850.000000	99.295427 
1849.000000	99.304145 
1848.000000	99.309387 
1847.000000	99.313405 
1846.000000	99.316100 
1845.000000	99.310135 
1844.000000	99.293420 
1843.000000	99.277211 
1842.000000	99.270414 
1841.000000	99.269362 
1840.000000	99.269785 
1839.000000	99.273645 
1838.000000	99.281033 
1837.000000	99.284837 
1836.000000	99.280299 
1835.000000	99.273298 
1834.000000	99.270557 
1833.000000	99.269491 
1832.000000	99.264519 
1831.000000	99.256545 
1830.000000	99.249013 
1829.000000	99.242625 
1828.000000	99.240279 
1827.000000	99.245003 
1826.000000	99.251669 
1825.000000	99.249898 
1824.000000	99.237685 
1823.000000	99.225122 
1822.000000	99.219330 
1821.000000	99.218211 
1820.000000	99.221406 
1819.000000	99.233532 
1818.000000	99.252622 
1817.000000	99.265248 
1816.000000	99.261289 
1815.000000	99.246662 
1814.000000	99.232522 
1813.000000	99.220813 
1812.000000	99.208156 
1811.000000	99.194831 
1810.000000	99.183337 
1809.000000	99.172397 
1808.000000	99.159732 
1807.000000	99.147868 
1806.000000	99.140706 
1805.000000	99.138726 
1804.000000	99.140959 
1803.000000	99.146419 
1802.000000	99.148454 
1801.000000	99.134988 
1800.000000	99.105343 
1799.000000	99.077080 
1798.000000	99.065168 
1797.000000	99.065112 
1796.000000	99.064028 
1795.000000	99.057172 
1794.000000	99.046043 
1793.000000	99.028929 
1792.000000	99.003422 
1791.000000	98.975741 
1790.000000	98.955109 
1789.000000	98.941905 
1788.000000	98.932481 
1787.000000	98.926220 
1786.000000	98.920764 
1785.000000	98.908141 
1784.000000	98.884007 
1783.000000	98.856087 
1782.000000	98.832279 
1781.000000	98.808682 
1780.000000	98.779520 
1779.000000	98.748686 
1778.000000	98.722546 
1777.000000	98.698892 
1776.000000	98.672485 
1775.000000	98.641790 
1774.000000	98.601928 
1773.000000	98.542140 
1772.000000	98.463663 
1771.000000	98.389958 
1770.000000	98.336583 
1769.000000	98.288024 
1768.000000	98.221338 
1767.000000	98.136645 
1766.000000	98.051899 
1765.000000	97.975256 
1764.000000	97.897597 
1763.000000	97.806471 
1762.000000	97.698948 
1761.000000	97.585612 
1760.000000	97.480671 
1759.000000	97.385286 
1758.000000	97.284465 
1757.000000	97.161490 
1756.000000	97.023086 
1755.000000	96.896812 
1754.000000	96.793319 
1753.000000	96.693274 
1752.000000	96.570327 
1751.000000	96.417896 
1750.000000	96.249112 
1749.000000	96.074591 
1748.000000	95.900626 
1747.000000	95.738714 
1746.000000	95.592897 
1745.000000	95.451101 
1744.000000	95.301943 
1743.000000	95.148263 
1742.000000	94.997240 
1741.000000	94.847459 
1740.000000	94.698905 
1739.000000	94.567819 
1738.000000	94.469864 
1737.000000	94.397963 
1736.000000	94.329355 
1735.000000	94.246305 
1734.000000	94.155104 
1733.000000	94.074364 
1732.000000	94.007628 
1731.000000	93.946694 
1730.000000	93.884801 
1729.000000	93.819798 
1728.000000	93.757341 
1727.000000	93.705620 
1726.000000	93.664700 
1725.000000	93.628122 
1724.000000	93.591280 
1723.000000	93.554000 
1722.000000	93.518044 
1721.000000	93.484206 
1720.000000	93.450571 
1719.000000	93.411839 
1718.000000	93.361676 
1717.000000	93.298719 
1716.000000	93.228377 
1715.000000	93.157760 
1714.000000	93.096695 
1713.000000	93.057435 
1712.000000	93.044543 
1711.000000	93.054175 
1710.000000	93.083178 
1709.000000	93.131222 
1708.000000	93.198980 
1707.000000	93.291068 
1706.000000	93.412382 
1705.000000	93.549707 
1704.000000	93.672404 
1703.000000	93.767895 
1702.000000	93.843846 
1701.000000	93.931647 
1700.000000	94.060730 
1699.000000	94.196737 
1698.000000	94.301135 
1697.000000	94.373859 
1696.000000	94.421983 
1695.000000	94.457139 
1694.000000	94.486055 
1693.000000	94.509550 
1692.000000	94.533644 
1691.000000	94.565195 
1690.000000	94.603449 
1689.000000	94.638979 
1688.000000	94.665227 
1687.000000	94.684412 
1686.000000	94.692074 
1685.000000	94.684174 
1684.000000	94.667282 
1683.000000	94.652526 
1682.000000	94.647475 
1681.000000	94.640917 
1680.000000	94.620299 
1679.000000	94.588352 
1678.000000	94.550726 
1677.000000	94.503902 
1676.000000	94.443538 
1675.000000	94.383853 
1674.000000	94.340409 
1673.000000	94.305059 
1672.000000	94.261340 
1671.000000	94.203868 
1670.000000	94.135761 
1669.000000	94.061887 
1668.000000	93.992251 
1667.000000	93.935765 
1666.000000	93.885941 
1665.000000	93.827400 
1664.000000	93.752582 
1663.000000	93.673045 
1662.000000	93.606160 
1661.000000	93.551642 
1660.000000	93.500298 
1659.000000	93.451250 
1658.000000	93.408394 
1657.000000	93.373417 
1656.000000	93.344119 
1655.000000	93.309989 
1654.000000	93.258795 
1653.000000	93.196160 
1652.000000	93.151661 
1651.000000	93.133398 
1650.000000	93.119054 
1649.000000	93.101704 
1648.000000	93.079846 
1647.000000	93.054766 
1646.000000	93.034911 
1645.000000	93.021569 
1644.000000	93.009296 
1643.000000	92.996712 
1642.000000	92.985838 
1641.000000	92.971305 
1640.000000	92.950541 
1639.000000	92.930247 
1638.000000	92.911953 
1637.000000	92.881879 
1636.000000	92.829157 
1635.000000	92.775103 
1634.000000	92.745153 
1633.000000	92.727171 
1632.000000	92.700443 
1631.000000	92.662202 
1630.000000	92.616488 
1629.000000	92.564868 
1628.000000	92.508972 
1627.000000	92.456546 
1626.000000	92.410972 
1625.000000	92.362159 
1624.000000	92.302209 
1623.000000	92.241869 
1622.000000	92.196032 
1621.000000	92.160721 
1620.000000	92.123351 
1619.000000	92.077550 
1618.000000	92.016471 
1617.000000	91.929260 
1616.000000	91.818743 
1615.000000	91.706025 
1614.000000	91.598841 
1613.000000	91.483401 
1612.000000	91.349815 
1611.000000	91.209289 
1610.000000	91.082437 
1609.000000	90.974474 
1608.000000	90.881589 
1607.000000	90.811957 
1606.000000	90.775405 
1605.000000	90.764009 
1604.000000	90.764068 
1603.000000	90.773912 
1602.000000	90.794291 
1601.000000	90.813982 
1600.000000	90.821528 
1599.000000	90.822141 
1598.000000	90.827872 
1597.000000	90.839945 
1596.000000	90.854511 
1595.000000	90.879236 
1594.000000	90.928395 
1593.000000	91.005633 
1592.000000	91.107378 
1591.000000	91.236776 
1590.000000	91.397866 
1589.000000	91.582110 
1588.000000	91.776183 
1587.000000	91.976709 
1586.000000	92.184825 
1585.000000	92.393774 
1584.000000	92.595430 
1583.000000	92.791954 
1582.000000	92.986631 
1581.000000	93.172544 
1580.000000	93.341659 
1579.000000	93.498527 
1578.000000	93.655631 
1577.000000	93.824228 
1576.000000	93.999894 
1575.000000	94.155081 
1574.000000	94.272119 
1573.000000	94.360381 
1572.000000	94.435027 
1571.000000	94.509010 
1570.000000	94.593812 
1569.000000	94.684829 
1568.000000	94.767970 
1567.000000	94.838830 
1566.000000	94.899408 
1565.000000	94.951916 
1564.000000	95.001085 
1563.000000	95.047789 
1562.000000	95.088917 
1561.000000	95.106605 
1560.000000	95.109486 
1559.000000	95.130469 
1558.000000	95.154286 
1557.000000	95.179926 
1556.000000	95.214273 
1555.000000	95.243527 
1554.000000	95.263406 
1553.000000	95.277986 
1552.000000	95.297755 
1551.000000	95.323058 
1550.000000	95.342403 
1549.000000	95.348504 
1548.000000	95.350729 
1547.000000	95.362028 
1546.000000	95.382868 
1545.000000	95.403358 
1544.000000	95.413553 
1543.000000	95.412429 
1542.000000	95.404845 
1541.000000	95.392533 
1540.000000	95.368290 
1539.000000	95.337645 
1538.000000	95.316695 
1537.000000	95.301459 
1536.000000	95.284466 
1535.000000	95.261762 
1534.000000	95.225114 
1533.000000	95.174098 
1532.000000	95.123734 
1531.000000	95.084801 
1530.000000	95.049775 
1529.000000	95.009982 
1528.000000	94.962493 
1527.000000	94.901978 
1526.000000	94.823044 
1525.000000	94.734993 
1524.000000	94.652075 
1523.000000	94.563435 
1522.000000	94.426313 
1521.000000	94.227816 
1520.000000	94.026031 
1519.000000	93.859975 
1518.000000	93.706255 
1517.000000	93.542479 
1516.000000	93.387003 
1515.000000	93.269581 
1514.000000	93.187157 
1513.000000	93.122470 
1512.000000	93.072722 
1511.000000	93.040526 
1510.000000	93.022700 
1509.000000	93.010697 
1508.000000	93.003009 
1507.000000	92.999243 
1506.000000	93.002384 
1505.000000	93.034412 
1504.000000	93.098783 
1503.000000	93.182375 
1502.000000	93.280996 
1501.000000	93.392147 
1500.000000	93.517704 
1499.000000	93.662148 
1498.000000	93.824740 
1497.000000	93.995067 
1496.000000	94.154234 
1495.000000	94.286357 
1494.000000	94.390390 
1493.000000	94.478449 
1492.000000	94.567867 
1491.000000	94.671759 
1490.000000	94.777597 
1489.000000	94.850103 
1488.000000	94.880210 
1487.000000	94.891317 
1486.000000	94.898538 
1485.000000	94.898796 
1484.000000	94.888914 
1483.000000	94.871667 
1482.000000	94.843882 
1481.000000	94.797253 
1480.000000	94.733447 
1479.000000	94.661330 
1478.000000	94.577540 
1477.000000	94.468545 
1476.000000	94.332974 
1475.000000	94.179150 
1474.000000	93.993812 
1473.000000	93.744578 
1472.000000	93.446644 
1471.000000	93.165465 
1470.000000	92.926086 
1469.000000	92.707155 
1468.000000	92.494961 
1467.000000	92.291164 
1466.000000	92.099113 
1465.000000	91.925747 
1464.000000	91.792393 
1463.000000	91.711377 
1462.000000	91.665517 
1461.000000	91.633366 
1460.000000	91.609971 
1459.000000	91.598036 
1458.000000	91.591025 
1457.000000	91.576272 
1456.000000	91.558075 
1455.000000	91.547070 
1454.000000	91.541178 
1453.000000	91.541157 
1452.000000	91.552142 
1451.000000	91.574144 
1450.000000	91.603174 
1449.000000	91.638046 
1448.000000	91.680647 
1447.000000	91.727578 
1446.000000	91.772056 
1445.000000	91.812914 
1444.000000	91.855351 
1443.000000	91.900834 
1442.000000	91.943176 
1441.000000	91.976424 
1440.000000	92.001345 
1439.000000	92.020682 
1438.000000	92.033198 
1437.000000	92.036778 
1436.000000	92.030083 
1435.000000	92.012155 
1434.000000	91.983332 
1433.000000	91.944903 
1432.000000	91.899865 
1431.000000	91.852043 
1430.000000	91.801862 
1429.000000	91.749207 
1428.000000	91.699952 
1427.000000	91.661004 
1426.000000	91.631487 
1425.000000	91.605985 
1424.000000	91.584579 
1423.000000	91.571412 
1422.000000	91.569085 
1421.000000	91.580853 
1420.000000	91.618728 
1419.000000	91.689147 
1418.000000	91.767045 
1417.000000	91.828096 
1416.000000	91.878859 
1415.000000	91.932286 
1414.000000	91.991848 
1413.000000	92.056995 
1412.000000	92.127344 
1411.000000	92.199067 
1410.000000	92.264881 
1409.000000	92.322124 
1408.000000	92.373814 
1407.000000	92.422677 
1406.000000	92.468410 
1405.000000	92.508553 
1404.000000	92.539974 
1403.000000	92.560783 
1402.000000	92.573400 
1401.000000	92.583993 
1400.000000	92.596668 
1399.000000	92.607182 
1398.000000	92.606843 
1397.000000	92.592453 
1396.000000	92.563680 
1395.000000	92.518522 
1394.000000	92.458866 
1393.000000	92.392376 
1392.000000	92.324528 
1391.000000	92.255044 
1390.000000	92.181385 
1389.000000	92.098517 
1388.000000	91.997700 
1387.000000	91.873229 
1386.000000	91.731274 
1385.000000	91.583593 
1384.000000	91.435292 
1383.000000	91.286100 
1382.000000	91.137293 
1381.000000	90.992232 
1380.000000	90.854096 
1379.000000	90.727311 
1378.000000	90.617702 
1377.000000	90.529044 
1376.000000	90.462621 
1375.000000	90.418406 
1374.000000	90.391385 
1373.000000	90.372633 
1372.000000	90.359281 
1371.000000	90.355817 
1370.000000	90.365367 
1369.000000	90.384977 
1368.000000	90.410225 
1367.000000	90.440374 
1366.000000	90.477420 
1365.000000	90.524192 
1364.000000	90.583576 
1363.000000	90.652765 
1362.000000	90.718814 
1361.000000	90.771022 
1360.000000	90.813809 
1359.000000	90.858232 
1358.000000	90.908054 
1357.000000	90.958988 
1356.000000	91.006716 
1355.000000	91.049764 
1354.000000	91.085352 
1353.000000	91.109671 
1352.000000	91.122805 
1351.000000	91.128763 
1350.000000	91.130091 
1349.000000	91.125777 
1348.000000	91.115481 
1347.000000	91.100402 
1346.000000	91.079646 
1345.000000	91.051056 
1344.000000	91.016973 
1343.000000	90.984522 
1342.000000	90.958096 
1341.000000	90.933938 
1340.000000	90.902644 
1339.000000	90.856551 
1338.000000	90.795687 
1337.000000	90.727891 
1336.000000	90.663993 
1335.000000	90.611534 
1334.000000	90.571132 
1333.000000	90.539480 
1332.000000	90.514925 
1331.000000	90.497313 
1330.000000	90.483880 
1329.000000	90.470449 
1328.000000	90.456546 
1327.000000	90.444546 
1326.000000	90.433933 
1325.000000	90.421098 
1324.000000	90.405277 
1323.000000	90.389158 
1322.000000	90.373325 
1321.000000	90.355315 
1320.000000	90.334441 
1319.000000	90.312486 
1318.000000	90.289347 
1317.000000	90.263904 
1316.000000	90.239671 
1315.000000	90.223741 
1314.000000	90.219260 
1313.000000	90.223966 
1312.000000	90.236781 
1311.000000	90.260396 
1310.000000	90.295987 
1309.000000	90.340704 
1308.000000	90.391332 
1307.000000	90.445605 
1306.000000	90.499198 
1305.000000	90.546095 
1304.000000	90.583387 
1303.000000	90.611637 
1302.000000	90.630310 
1301.000000	90.636830 
1300.000000	90.630443 
1299.000000	90.612748 
1298.000000	90.583589 
1297.000000	90.540420 
1296.000000	90.482681 
1295.000000	90.413170 
1294.000000	90.333834 
1293.000000	90.243971 
1292.000000	90.143734 
1291.000000	90.035443 
1290.000000	89.920062 
1289.000000	89.796346 
1288.000000	89.665139 
1287.000000	89.530489 
1286.000000	89.394840 
1285.000000	89.257501 
1284.000000	89.119513 
1283.000000	88.985094 
1282.000000	88.856485 
1281.000000	88.732111 
1280.000000	88.611183 
1279.000000	88.494607 
1278.000000	88.380029 
1277.000000	88.262622 
1276.000000	88.142954 
1275.000000	88.027986 
1274.000000	87.922014 
1273.000000	87.822565 
1272.000000	87.726959 
1271.000000	87.636078 
1270.000000	87.549704 
1269.000000	87.465613 
1268.000000	87.385777 
1267.000000	87.315906 
1266.000000	87.256177 
1265.000000	87.199744 
1264.000000	87.142526 
1263.000000	87.086710 
1262.000000	87.032677 
1261.000000	86.975635 
1260.000000	86.912839 
1259.000000	86.846500 
1258.000000	86.777255 
1257.000000	86.702656 
1256.000000	86.623775 
1255.000000	86.545041 
1254.000000	86.465842 
1253.000000	86.380864 
1252.000000	86.290638 
1251.000000	86.202994 
1250.000000	86.122152 
1249.000000	86.045594 
1248.000000	85.973547 
1247.000000	85.911133 
1246.000000	85.858430 
1245.000000	85.809197 
1244.000000	85.762871 
1243.000000	85.727671 
1242.000000	85.708722 
1241.000000	85.703319 
1240.000000	85.710241 
1239.000000	85.732337 
1238.000000	85.767141 
1237.000000	85.806552 
1236.000000	85.849333 
1235.000000	85.903211 
1234.000000	85.971546 
1233.000000	86.048419 
1232.000000	86.129432 
1231.000000	86.216566 
1230.000000	86.309858 
1229.000000	86.405150 
1228.000000	86.502890 
1227.000000	86.609085 
1226.000000	86.724895 
1225.000000	86.844440 
1224.000000	86.964524 
1223.000000	87.087110 
1222.000000	87.211016 
1221.000000	87.331105 
1220.000000	87.447435 
1219.000000	87.565907 
1218.000000	87.688189 
1217.000000	87.809920 
1216.000000	87.930358 
1215.000000	88.054755 
1214.000000	88.185200 
1213.000000	88.317214 
1212.000000	88.446982 
1211.000000	88.574583 
1210.000000	88.699447 
1209.000000	88.820305 
1208.000000	88.940427 
1207.000000	89.065620 
1206.000000	89.196222 
1205.000000	89.327585 
1204.000000	89.458439 
1203.000000	89.591846 
1202.000000	89.728089 
1201.000000	89.863833 
1200.000000	89.998506 
1199.000000	90.134755 
1198.000000	90.272186 
1197.000000	90.406787 
1196.000000	90.536811 
1195.000000	90.663467 
1194.000000	90.785512 
1193.000000	90.898421 
1192.000000	90.999324 
1191.000000	91.088171 
1190.000000	91.163851 
1189.000000	91.223532 
1188.000000	91.266376 
1187.000000	91.294228 
1186.000000	91.307920 
1185.000000	91.305845 
1184.000000	91.286549 
1183.000000	91.249898 
1182.000000	91.195126 
1181.000000	91.120111 
1180.000000	91.023058 
1179.000000	90.902567 
1178.000000	90.755705 
1177.000000	90.578808 
1176.000000	90.371029 
1175.000000	90.134751 
1174.000000	89.872158 
1173.000000	89.584747 
1172.000000	89.277552 
1171.000000	88.960204 
1170.000000	88.642132 
1169.000000	88.330964 
1168.000000	88.037456 
1167.000000	87.775623 
1166.000000	87.554425 
1165.000000	87.375043 
1164.000000	87.238180 
1163.000000	87.145660 
1162.000000	87.092643 
1161.000000	87.068031 
1160.000000	87.065332 
1159.000000	87.084024 
1158.000000	87.119099 
1157.000000	87.160275 
1156.000000	87.203891 
1155.000000	87.255389 
1154.000000	87.317500 
1153.000000	87.385350 
1152.000000	87.454976 
1151.000000	87.526750 
1150.000000	87.598384 
1149.000000	87.664166 
1148.000000	87.723209 
1147.000000	87.779599 
1146.000000	87.833178 
1145.000000	87.879028 
1144.000000	87.916473 
1143.000000	87.948409 
1142.000000	87.970157 
1141.000000	87.969161 
1140.000000	87.938378 
1139.000000	87.880805 
1138.000000	87.798814 
1137.000000	87.688950 
1136.000000	87.550620 
1135.000000	87.390644 
1134.000000	87.214762 
1133.000000	87.022764 
1132.000000	86.816250 
1131.000000	86.602712 
1130.000000	86.387362 
1129.000000	86.169306 
1128.000000	85.950352 
1127.000000	85.738733 
1126.000000	85.539578 
1125.000000	85.351133 
1124.000000	85.174393 
1123.000000	85.015467 
1122.000000	84.873958 
1121.000000	84.740704 
1120.000000	84.611333 
1119.000000	84.489721 
1118.000000	84.374456 
1117.000000	84.255863 
1116.000000	84.131408 
1115.000000	84.010492 
1114.000000	83.899289 
1113.000000	83.794692 
1112.000000	83.697647 
1111.000000	83.616459 
1110.000000	83.550565 
1109.000000	83.486830 
1108.000000	83.418705 
1107.000000	83.353887 
1106.000000	83.297466 
1105.000000	83.243388 
1104.000000	83.188527 
1103.000000	83.138993 
1102.000000	83.096154 
1101.000000	83.051939 
1100.000000	83.004404 
1099.000000	82.962117 
1098.000000	82.927192 
1097.000000	82.889405 
1096.000000	82.843020 
1095.000000	82.793724 
1094.000000	82.743385 
1093.000000	82.684574 
1092.000000	82.616193 
1091.000000	82.547936 
1090.000000	82.483088 
1089.000000	82.413042 
1088.000000	82.334484 
1087.000000	82.255468 
1086.000000	82.178821 
1085.000000	82.096538 
1084.000000	82.006394 
1083.000000	81.916226 
1082.000000	81.825678 
1081.000000	81.722597 
1080.000000	81.604800 
1079.000000	81.486835 
1078.000000	81.377796 
1077.000000	81.271023 
1076.000000	81.162653 
1075.000000	81.060651 
1074.000000	80.967656 
1073.000000	80.873818 
1072.000000	80.773979 
1071.000000	80.673213 
1070.000000	80.569393 
1069.000000	80.450141 
1068.000000	80.313039 
1067.000000	80.168557 
1066.000000	80.017194 
1065.000000	79.845132 
1064.000000	79.649219 
1063.000000	79.444752 
1062.000000	79.241804 
1061.000000	79.035397 
1060.000000	78.826033 
1059.000000	78.626340 
1058.000000	78.437764 
1057.000000	78.243639 
1056.000000	78.035678 
1055.000000	77.825424 
1054.000000	77.620669 
1053.000000	77.414363 
1052.000000	77.207910 
1051.000000	77.019461 
1050.000000	76.854538 
1049.000000	76.695254 
1048.000000	76.532733 
1047.000000	76.381578 
1046.000000	76.250507 
1045.000000	76.127342 
1044.000000	76.003519 
1043.000000	75.886884 
1042.000000	75.780364 
1041.000000	75.672255 
1040.000000	75.557502 
1039.000000	75.445768 
1038.000000	75.340347 
1037.000000	75.233245 
1036.000000	75.129113 
1035.000000	75.048876 
1034.000000	75.000377 
1033.000000	74.969846 
1032.000000	74.951206 
1031.000000	74.957843 
1030.000000	74.995208 
1029.000000	75.047875 
1028.000000	75.104855 
1027.000000	75.173336 
1026.000000	75.257502 
1025.000000	75.347721 
1024.000000	75.440131 
1023.000000	75.544005 
1022.000000	75.661007 
1021.000000	75.778905 
1020.000000	75.893821 
1019.000000	76.017041 
1018.000000	76.151420 
1017.000000	76.282361 
1016.000000	76.400583 
1015.000000	76.513589 
1014.000000	76.627189 
1013.000000	76.735706 
1012.000000	76.837437 
1011.000000	76.940331 
1010.000000	77.045752 
1009.000000	77.145242 
1008.000000	77.239016 
1007.000000	77.338765 
1006.000000	77.446519 
1005.000000	77.549774 
1004.000000	77.643505 
1003.000000	77.737034 
1002.000000	77.832463 
1001.000000	77.916422 
1000.000000	77.981357 
999.000000	 78.036853 
998.000000	 78.091857 
997.000000	 78.142358 
996.000000	 78.184465 
995.000000	 78.224441 
994.000000	 78.268617 
993.000000	 78.316938 
992.000000	 78.371525 
991.000000	 78.437385 
990.000000	 78.510907 
989.000000	 78.583520 
988.000000	 78.660252 
987.000000	 78.758040 
986.000000	 78.882463 
985.000000	 79.023084 
984.000000	 79.174236 
983.000000	 79.341808 
982.000000	 79.525836 
981.000000	 79.714947 
980.000000	 79.903128 
979.000000	 80.095240 
978.000000	 80.291339 
977.000000	 80.481645 
976.000000	 80.661375 
975.000000	 80.835176 
974.000000	 81.003692 
973.000000	 81.161354 
972.000000	 81.310575 
971.000000	 81.462471 
970.000000	 81.619996 
969.000000	 81.775215 
968.000000	 81.926130 
967.000000	 82.081042 
966.000000	 82.243099 
965.000000	 82.405866 
964.000000	 82.568046 
963.000000	 82.737519 
962.000000	 82.916645 
961.000000	 83.098151 
960.000000	 83.279547 
959.000000	 83.467194 
958.000000	 83.661919 
957.000000	 83.854563 
956.000000	 84.040513 
955.000000	 84.225883 
954.000000	 84.414847 
953.000000	 84.602862 
952.000000	 84.786691 
951.000000	 84.969360 
950.000000	 85.150424 
949.000000	 85.322307 
948.000000	 85.481158 
947.000000	 85.631766 
946.000000	 85.777782 
945.000000	 85.916028 
944.000000	 86.043812 
943.000000	 86.163201 
942.000000	 86.274800 
941.000000	 86.375433 
940.000000	 86.464826 
939.000000	 86.546934 
938.000000	 86.622486 
937.000000	 86.688231 
936.000000	 86.745608 
935.000000	 86.801782 
934.000000	 86.859667 
933.000000	 86.915133 
932.000000	 86.966256 
931.000000	 87.016861 
930.000000	 87.068409 
929.000000	 87.116793 
928.000000	 87.160090 
927.000000	 87.201751 
926.000000	 87.243604 
925.000000	 87.283409 
924.000000	 87.321674 
923.000000	 87.362689 
922.000000	 87.406078 
921.000000	 87.445464 
920.000000	 87.478566 
919.000000	 87.510975 
918.000000	 87.546849 
917.000000	 87.582956 
916.000000	 87.614572 
915.000000	 87.640188 
914.000000	 87.658071 
913.000000	 87.665492 
912.000000	 87.663934 
911.000000	 87.658002 
910.000000	 87.646865 
909.000000	 87.623862 
908.000000	 87.586237 
907.000000	 87.537192 
906.000000	 87.476834 
905.000000	 87.400793 
904.000000	 87.310895 
903.000000	 87.217497 
902.000000	 87.126927 
901.000000	 87.036030 
900.000000	 86.944366 
899.000000	 86.862821 
898.000000	 86.804109 
897.000000	 86.772805 
896.000000	 86.769978 
895.000000	 86.798690 
894.000000	 86.858629 
893.000000	 86.942568 
892.000000	 87.042925 
891.000000	 87.155067 
890.000000	 87.271739 
889.000000	 87.382892 
888.000000	 87.484845 
887.000000	 87.582508 
886.000000	 87.679429 
885.000000	 87.772037 
884.000000	 87.855617 
883.000000	 87.928687 
882.000000	 87.989270 
881.000000	 88.034084 
880.000000	 88.063921 
879.000000	 88.083456 
878.000000	 88.094363 
877.000000	 88.095631 
876.000000	 88.091341 
875.000000	 88.089578 
874.000000	 88.092285 
873.000000	 88.095053 
872.000000	 88.097918 
871.000000	 88.106716 
870.000000	 88.122503 
869.000000	 88.139687 
868.000000	 88.156134 
867.000000	 88.175176 
866.000000	 88.195983 
865.000000	 88.211570 
864.000000	 88.217984 
863.000000	 88.216063 
862.000000	 88.202862 
861.000000	 88.171894 
860.000000	 88.124785 
859.000000	 88.072567 
858.000000	 88.021409 
857.000000	 87.966228 
856.000000	 87.902345 
855.000000	 87.834264 
854.000000	 87.768601 
853.000000	 87.707412 
852.000000	 87.653506 
851.000000	 87.613708 
850.000000	 87.591271 
849.000000	 87.581905 
848.000000	 87.580869 
847.000000	 87.586721 
846.000000	 87.596334 
845.000000	 87.605376 
844.000000	 87.615961 
843.000000	 87.634419 
842.000000	 87.659279 
841.000000	 87.681131 
840.000000	 87.696479 
839.000000	 87.711229 
838.000000	 87.727836 
837.000000	 87.740016 
836.000000	 87.744271 
835.000000	 87.746546 
834.000000	 87.753069 
833.000000	 87.763616 
832.000000	 87.777692 
831.000000	 87.797589 
830.000000	 87.820695 
829.000000	 87.838373 
828.000000	 87.847837 
827.000000	 87.856308 
826.000000	 87.868569 
825.000000	 87.880080 
824.000000	 87.887051 
823.000000	 87.892276 
822.000000	 87.896807 
821.000000	 87.897620 
820.000000	 87.896532 
819.000000	 87.899856 
818.000000	 87.907651 
817.000000	 87.914419 
816.000000	 87.921217 
815.000000	 87.935363 
814.000000	 87.956352 
813.000000	 87.973929 
812.000000	 87.982952 
811.000000	 87.988662 
810.000000	 87.994703 
809.000000	 87.998537 
808.000000	 88.002427 
807.000000	 88.015598 
806.000000	 88.039460 
805.000000	 88.062618 
804.000000	 88.077089 
803.000000	 88.088535 
802.000000	 88.104163 
801.000000	 88.121319 
800.000000	 88.135557 
799.000000	 88.150579 
798.000000	 88.172008 
797.000000	 88.198375 
796.000000	 88.224825 
795.000000	 88.249278 
794.000000	 88.269755 
793.000000	 88.282302 
792.000000	 88.286289 
791.000000	 88.285977 
790.000000	 88.283460 
789.000000	 88.276198 
788.000000	 88.263947 
787.000000	 88.250971 
786.000000	 88.238864 
785.000000	 88.224449 
784.000000	 88.207068 
783.000000	 88.189986 
782.000000	 88.171638 
781.000000	 88.142631 
780.000000	 88.093393 
779.000000	 88.017648 
778.000000	 87.908315 
777.000000	 87.760245 
776.000000	 87.579994 
775.000000	 87.384841 
774.000000	 87.190203 
773.000000	 87.006744 
772.000000	 86.850526 
771.000000	 86.742446 
770.000000	 86.691852 
769.000000	 86.691134 
768.000000	 86.730037 
767.000000	 86.802974 
766.000000	 86.898777 
765.000000	 86.997347 
764.000000	 87.082934 
763.000000	 87.151174 
762.000000	 87.200922 
761.000000	 87.230811 
760.000000	 87.246516 
759.000000	 87.258737 
758.000000	 87.269120 
757.000000	 87.268735 
756.000000	 87.253777 
755.000000	 87.231389 
754.000000	 87.206718 
753.000000	 87.176440 
752.000000	 87.139384 
751.000000	 87.101418 
750.000000	 87.065574 
749.000000	 87.029203 
748.000000	 86.994308 
747.000000	 86.967799 
746.000000	 86.947796 
745.000000	 86.923100 
744.000000	 86.890521 
743.000000	 86.859242 
742.000000	 86.833800 
741.000000	 86.806948 
740.000000	 86.774090 
739.000000	 86.740002 
738.000000	 86.706124 
737.000000	 86.666706 
736.000000	 86.623051 
735.000000	 86.585531 
734.000000	 86.554845 
733.000000	 86.516781 
732.000000	 86.463259 
731.000000	 86.403383 
730.000000	 86.346049 
729.000000	 86.286578 
728.000000	 86.220196 
727.000000	 86.153857 
726.000000	 86.093136 
725.000000	 86.032505 
724.000000	 85.969475 
723.000000	 85.914062 
722.000000	 85.873951 
721.000000	 85.842431 
720.000000	 85.809756 
719.000000	 85.774773 
718.000000	 85.738009 
717.000000	 85.697986 
716.000000	 85.660636 
715.000000	 85.637007 
714.000000	 85.624832 
713.000000	 85.607268 
712.000000	 85.577244 
711.000000	 85.545198 
710.000000	 85.515409 
709.000000	 85.474944 
708.000000	 85.416264 
707.000000	 85.352282 
706.000000	 85.294959 
705.000000	 85.236184 
704.000000	 85.163882 
703.000000	 85.079590 
702.000000	 84.988349 
701.000000	 84.889557 
700.000000	 84.789494 
699.000000	 84.706761 
698.000000	 84.650286 
697.000000	 84.608113 
696.000000	 84.571697 
695.000000	 84.550183 
694.000000	 84.549297 
693.000000	 84.556859 
692.000000	 84.561949 
691.000000	 84.570679 
690.000000	 84.585843 
689.000000	 84.591360 
688.000000	 84.576871 
687.000000	 84.557022 
686.000000	 84.547129 
685.000000	 84.539777 
684.000000	 84.521566 
683.000000	 84.491168 
682.000000	 84.446182 
681.000000	 84.377356 
680.000000	 84.290377 
679.000000	 84.208600 
678.000000	 84.137977 
677.000000	 84.056663 
676.000000	 83.950126 
675.000000	 83.837559 
674.000000	 83.734004 
673.000000	 83.625170 
672.000000	 83.508455 
671.000000	 83.421097 
670.000000	 83.401108 
669.000000	 83.434228 
668.000000	 83.426151 
667.000000	 83.284101 
666.000000	 83.085903 
665.000000	 82.936422 
664.000000	 82.844206 
663.000000	 82.797513 
662.000000	 82.782417 
661.000000	 82.774020 
660.000000	 82.761443 
659.000000	 82.754641 
658.000000	 82.749346 
657.000000	 82.721043 
656.000000	 82.669437 
655.000000	 82.634966 
654.000000	 82.637860 
653.000000	 82.645748 
652.000000	 82.634437 
651.000000	 82.624441 
650.000000	 82.628668 
649.000000	 82.616806 
648.000000	 82.568833 
647.000000	 82.510846 
646.000000	 82.460243 
645.000000	 82.394254 
644.000000	 82.308315 
643.000000	 82.244523 
642.000000	 82.221410 
641.000000	 82.192409 
640.000000	 82.122853 
639.000000	 82.048227 
638.000000	 82.005706 
637.000000	 81.971480 
636.000000	 81.926180 
635.000000	 81.907138 
634.000000	 81.930572 
633.000000	 81.939639 
632.000000	 81.895037 
631.000000	 81.837522 
630.000000	 81.804715 
629.000000	 81.758643 
628.000000	 81.660328 
627.000000	 81.551800 
626.000000	 81.493461 
625.000000	 81.474316 
624.000000	 81.459074 
623.000000	 81.451711 
622.000000	 81.435304 
621.000000	 81.341251 
620.000000	 81.158927 
619.000000	 80.984548 
618.000000	 80.883198 
617.000000	 80.802661 
616.000000	 80.716233 
615.000000	 80.688110 
614.000000	 80.711488 
613.000000	 80.673871 
612.000000	 80.555262 
611.000000	 80.475070 
610.000000	 80.468652 
609.000000	 80.409832 
608.000000	 80.252510 
607.000000	 80.143043 
606.000000	 80.180165 
605.000000	 80.249990 
604.000000	 80.230703 
603.000000	 80.161446 
602.000000	 80.102041 
601.000000	 80.008238 
600.000000	 79.864781 
599.000000	 79.780219 
598.000000	 79.821548 
597.000000	 79.896265 
596.000000	 79.915022 
595.000000	 79.916391 
594.000000	 79.933046 
593.000000	 79.890651 
592.000000	 79.763293 
591.000000	 79.671012 
590.000000	 79.684399 
589.000000	 79.702764 
588.000000	 79.666633 
587.000000	 79.667948 
586.000000	 79.726790 
585.000000	 79.690516 
584.000000	 79.513844 
583.000000	 79.391757 
582.000000	 79.424056 
581.000000	 79.414129 
580.000000	 79.264883 
579.000000	 79.239802 
578.000000	 79.507084 
577.000000	 79.782307 
576.000000	 79.809045 
575.000000	 79.764667 
574.000000	 79.867842 
573.000000	 79.956017 
572.000000	 79.849829 
571.000000	 79.685328 
570.000000	 79.601461 
569.000000	 79.465475 
568.000000	 79.212896 
567.000000	 79.049994 
566.000000	 79.009887 
565.000000	 78.799055 
564.000000	 78.403863 
563.000000	 78.286479 
562.000000	 78.651844 
561.000000	 79.062360 
560.000000	 79.199531 
559.000000	 79.273814 
558.000000	 79.427423 
557.000000	 79.367067 
556.000000	 78.967596 
555.000000	 78.631643 
554.000000	 78.651433 
553.000000	 78.734309 
552.000000	 78.679678 
551.000000	 78.850513 
550.000000	 79.414460 

